time[s],Transmitted signal[dBSPL],Received signal1[dBSPL],Received signal2[dB],center[dB]
0.0000000000,-0.0099949827,0.0000000000,0.0000000000
0.0000005000,-0.0229087174,0.0000000000,0.0000000000
0.0000010000,-0.0334439017,0.0000000000,0.0000000000
0.0000015000,-0.0402728543,0.0000000000,0.0000000000
0.0000020000,-0.0424708240,0.0000000000,0.0000000000
0.0000025000,-0.0396377705,0.0000000000,0.0000000000
0.0000030000,-0.0319611393,0.0000000000,0.0000000000
0.0000035000,-0.0202111267,0.0000000000,0.0000000000
0.0000040000,-0.0056668525,0.0000000000,0.0000000000
0.0000045000,0.0100198211,0.0000000000,0.0000000000
0.0000050000,0.0250086784,0.0000000000,0.0000000000
0.0000055000,0.0374835096,0.0000000000,0.0000000000
0.0000060000,0.0458682701,0.0000000000,0.0000000000
0.0000065000,0.0490220077,0.0000000000,0.0000000000
0.0000070000,0.0463882275,0.0000000000,0.0000000000
0.0000075000,0.0380809978,0.0000000000,0.0000000000
0.0000080000,0.0248939134,0.0000000000,0.0000000000
0.0000085000,0.0082305241,0.0000000000,0.0000000000
0.0000090000,-0.0100413021,0.0000000000,0.0000000000
0.0000095000,-0.0277930535,0.0000000000,0.0000000000
0.0000100000,-0.0428779796,0.0000000000,0.0000000000
0.0000105000,-0.0533853285,0.0000000000,0.0000000000
0.0000110000,-0.0578745194,0.0000000000,0.0000000000
0.0000115000,-0.0555643030,0.0000000000,0.0000000000
0.0000120000,-0.0464511029,0.0000000000,0.0000000000
0.0000125000,-0.0313410349,0.0000000000,0.0000000000
0.0000130000,-0.0117876017,0.0000000000,0.0000000000
0.0000135000,0.0100595448,0.0000000000,0.0000000000
0.0000140000,0.0316832848,0.0000000000,0.0000000000
0.0000145000,0.0504794717,0.0000000000,0.0000000000
0.0000150000,0.0640599653,0.0000000000,0.0000000000
0.0000155000,0.0705438629,0.0000000000,0.0000000000
0.0000160000,0.0688024312,0.0000000000,0.0000000000
0.0000165000,0.0586279966,0.0000000000,0.0000000000
0.0000170000,0.0408035591,0.0000000000,0.0000000000
0.0000175000,0.0170606859,0.0000000000,0.0000000000
0.0000180000,-0.0100744218,0.0000000000,0.0000000000
0.0000185000,-0.0375349671,0.0000000000,0.0000000000
0.0000190000,-0.0620422848,0.0000000000,0.0000000000
0.0000195000,-0.0804766864,0.0000000000,0.0000000000
0.0000200000,-0.0902505070,0.0000000000,0.0000000000
0.0000205000,-0.0896395743,-0.0000000000,-0.0000000000
0.0000210000,-0.0780358091,-0.0000000001,-0.0000000001
0.0000215000,-0.0560866892,-0.0000000009,-0.0000000009
0.0000220000,-0.0257013645,-0.0000000097,-0.0000000097
0.0000225000,0.0100860642,-0.0000000767,-0.0000000767
0.0000230000,0.0473880433,-0.0000004682,-0.0000004682
0.0000235000,0.0818468779,-0.0000023073,-0.0000023073
0.0000240000,0.1090967655,-0.0000094038,-0.0000094038
0.0000245000,0.1252558231,-0.0000322371,-0.0000322371
0.0000250000,0.1274006516,-0.0000939885,-0.0000939885
0.0000255000,0.1139688045,-0.0002346172,-0.0002346172
0.0000260000,0.0850444809,-0.0005027933,-0.0005027933
0.0000265000,0.0424907058,-0.0009236856,-0.0009236856
0.0000270000,-0.0100943409,-0.0014447281,-0.0014447281
0.0000275000,-0.0676022694,-0.0018943009,-0.0018943009
0.0000280000,-0.1238057613,-0.0020140074,-0.0020140074
0.0000285000,-0.1718885750,-0.0015957074,-0.0015957074
0.0000290000,-0.2050649226,-0.0006551941,-0.0006551941
0.0000295000,-0.2172335386,0.0005142256,0.0005142256
0.0000300000,-0.2036044747,0.0015103312,0.0015103312
0.0000305000,-0.1612349898,0.0021028407,0.0021028407
0.0000310000,-0.0894210562,0.0023569260,0.0023569260
0.0000315000,0.0100993235,0.0024614434,0.0024614434
0.0000320000,0.1331564784,0.0024590418,0.0024590418
0.0000325000,0.2733794451,0.0021992223,0.0021992223
0.0000330000,0.4226319790,0.0015408841,0.0015408841
0.0000335000,0.5716199279,0.0005027466,0.0005027466
0.0000340000,0.7106176019,-0.0008097012,-0.0008097012
0.0000345000,0.8302505612,-0.0022812365,-0.0022812365
0.0000350000,0.9222652912,-0.0036672973,-0.0036672973
0.0000355000,0.9802147746,-0.0045245518,-0.0045245518
0.0000360000,1.0000000000,-0.0044996957,-0.0044996957
0.0000365000,0.9802147746,-0.0036869091,-0.0036869091
0.0000370000,0.9222652912,-0.0024853267,-0.0024853267
0.0000375000,0.8302505612,-0.0010965397,-0.0010965397
0.0000380000,0.7106176019,0.0005581978,0.0005581978
0.0000385000,0.5716199279,0.0023628343,0.0023628343
0.0000390000,0.4226319790,0.0038281400,0.0038281400
0.0000395000,0.2733794451,0.0046273316,0.0046273316
0.0000400000,0.1331564784,0.0049788938,0.0049788938
0.0000405000,0.0100993235,0.0051522232,0.0051522232
0.0000410000,-0.0894210562,0.0048786271,0.0048786271
0.0000415000,-0.1612349898,0.0037049251,0.0037049251
0.0000420000,-0.2036044747,0.0017460794,0.0017460794
0.0000425000,-0.2172335386,-0.0003938507,-0.0003938507
0.0000430000,-0.2050649226,-0.0023269067,-0.0023269067
0.0000435000,-0.1718885750,-0.0040267417,-0.0040267417
0.0000440000,-0.1238057613,-0.0053873309,-0.0053873309
0.0000445000,-0.0676022694,-0.0061713317,-0.0061713317
0.0000450000,-0.0100943409,-0.0063451985,-0.0063451985
0.0000455000,0.0424907058,-0.0059558521,-0.0059558521
0.0000460000,0.0850444809,-0.0047605094,-0.0047605094
0.0000465000,0.1139688045,-0.0025541242,-0.0025541242
0.0000470000,0.1274006516,0.0001966557,0.0001966557
0.0000475000,0.1252558231,0.0026718697,0.0026718697
0.0000480000,0.1090967655,0.0046419427,0.0046419427
0.0000485000,0.0818468779,0.0064614355,0.0064614355
0.0000490000,0.0473880433,0.0080996593,0.0080996593
0.0000495000,0.0100860642,0.0088556204,0.0088556204
0.0000500000,-0.0257013645,0.0082039591,0.0082039591
0.0000505000,-0.0560866892,0.0063709472,0.0063709472
0.0000510000,-0.0780358091,0.0038801301,0.0038801301
0.0000515000,-0.0896395743,0.0009746063,0.0009746063
0.0000520000,-0.0902505070,-0.0023019942,-0.0023019942
0.0000525000,-0.0804766864,-0.0057544624,-0.0057544624
0.0000530000,-0.0620422848,-0.0089485087,-0.0089485087
0.0000535000,-0.0375349671,-0.0113541251,-0.0113541251
0.0000540000,-0.0100744218,-0.0125448061,-0.0125448061
0.0000545000,0.0170606859,-0.0123377321,-0.0123377321
0.0000550000,0.0408035591,-0.0107375961,-0.0107375961
0.0000555000,0.0586279966,-0.0077792117,-0.0077792117
0.0000560000,0.0688024312,-0.0035382668,-0.0035382668
0.0000565000,0.0705438629,0.0017510634,0.0017510634
0.0000570000,0.0640599653,0.0077171759,0.0077171759
0.0000575000,0.0504794717,0.0139142014,0.0139142014
0.0000580000,0.0316832848,0.0197922066,0.0197922066
0.0000585000,0.0100595448,0.0247913785,0.0247913785
0.0000590000,-0.0117876017,0.0285632256,0.0285632256
0.0000595000,-0.0313410349,0.0309209693,0.0309209693
0.0000600000,-0.0464511029,0.0316089913,0.0316089913
0.0000605000,-0.0555643030,0.0304389261,0.0304389261
0.0000610000,-0.0578745194,0.0276043508,0.0276043508
0.0000615000,-0.0533853285,0.0235146843,0.0235146843
0.0000620000,-0.0428779796,0.0184429940,0.0184429940
0.0000625000,-0.0277930535,0.0127063673,0.0127063673
0.0000630000,-0.0100413021,0.0069585717,0.0069585717
0.0000635000,0.0082305241,0.0018650875,0.0018650875
0.0000640000,0.0248939134,-0.0022810427,-0.0022810427
0.0000645000,0.0380809978,-0.0052905027,-0.0052905027
0.0000650000,0.0463882275,-0.0068092658,-0.0068092658
0.0000655000,0.0490220077,-0.0066576069,-0.0066576069
0.0000660000,0.0458682701,-0.0050447378,-0.0050447378
0.0000665000,0.0374835096,-0.0022365297,-0.0022365297
0.0000670000,0.0250086784,0.0015293141,0.0015293141
0.0000675000,0.0100198211,0.0057256217,0.0057256217
0.0000680000,-0.0056668525,0.0096879769,0.0096879769
0.0000685000,-0.0202111267,0.0130866468,0.0130866468
0.0000690000,-0.0319611393,0.0157361515,0.0157361515
0.0000695000,-0.0396377705,0.0171393044,0.0171393044
0.0000700000,-0.0424708240,0.0168133564,0.0168133564
0.0000705000,-0.0402728543,0.0148285991,0.0148285991
0.0000710000,-0.0334439017,0.0115304692,0.0115304692
0.0000714999,-0.0229087174,0.0070905467,0.0070905467
0.0000719999,-0.0099949827,0.0017359857,0.0017359857
0.0000724999,0.0037304156,-0.0040331860,-0.0040331860
0.0000729999,0.0000000000,-0.0097555649,-0.0097555649
0.0000734999,0.0000000000,-0.0150719509,-0.0150719509
0.0000739999,0.0000000000,-0.0194189642,-0.0194189642
0.0000744999,0.0000000000,-0.0222534705,-0.0222534705
0.0000749999,0.0000000000,-0.0235535186,-0.0235535186
0.0000754999,0.0000000000,-0.0235468522,-0.0235468522
0.0000759999,0.0000000000,-0.0221619885,-0.0221619885
0.0000764999,0.0000000000,-0.0193029512,-0.0193029512
0.0000769999,0.0000000000,-0.0153457914,-0.0153457914
0.0000774999,0.0000000000,-0.0108764637,-0.0108764637
0.0000779999,0.0000000000,-0.0063015274,-0.0063015274
0.0000784999,0.0000000000,-0.0020060940,-0.0020060940
0.0000789999,0.0000000000,0.0015954070,0.0015954070
0.0000794999,0.0000000000,0.0043426137,0.0043426137
0.0000799999,0.0000000000,0.0061918441,0.0061918441
0.0000804999,0.0000000000,0.0068627424,0.0068627424
0.0000809999,0.0000000000,0.0061557451,0.0061557451
0.0000814999,0.0000000000,0.0044199117,0.0044199117
0.0000819999,0.0000000000,0.0021948377,0.0021948377
0.0000824999,0.0000000000,-0.0003141377,-0.0003141377
0.0000829999,0.0000000000,-0.0030076667,-0.0030076667
0.0000834999,0.0000000000,-0.0055601555,-0.0055601555
0.0000839999,0.0000000000,-0.0076313624,-0.0076313624
0.0000844999,0.0000000000,-0.0090122484,-0.0090122484
0.0000849999,0.0000000000,-0.0094771720,-0.0094771720
0.0000854999,0.0000000000,-0.0089474097,-0.0089474097
0.0000859998,0.0000000000,-0.0077280928,-0.0077280928
0.0000864998,0.0000000000,-0.0061449269,-0.0061449269
0.0000869998,0.0000000000,-0.0041751387,-0.0041751387
0.0000874998,0.0000000000,-0.0018227391,-0.0018227391
0.0000879998,0.0000000000,0.0005095473,0.0005095473
0.0000884998,0.0000000000,0.0023697154,0.0023697154
0.0000889998,0.0000000000,0.0036053150,0.0036053150
0.0000894998,0.0000000000,0.0041912156,0.0041912156
0.0000899998,0.0000000000,0.0041233571,0.0041233571
0.0000904998,0.0000000000,0.0035236354,0.0035236354
0.0000909998,0.0000000000,0.0024825581,0.0024825581
0.0000914998,0.0000000000,0.0009339093,0.0009339093
0.0000919998,0.0000000000,-0.0009994282,-0.0009994282
0.0000924998,0.0000000000,-0.0028387858,-0.0028387858
0.0000929998,0.0000000000,-0.0042179828,-0.0042179828
0.0000934998,0.0000000000,-0.0051667974,-0.0051667974
0.0000939998,0.0000000000,-0.0057581095,-0.0057581095
0.0000944998,0.0000000000,-0.0058783381,-0.0058783381
0.0000949998,0.0000000000,-0.0054377257,-0.0054377257
0.0000954998,0.0000000000,-0.0044608954,-0.0044608954
0.0000959998,0.0000000000,-0.0030227168,-0.0030227168
0.0000964998,0.0000000000,-0.0013669289,-0.0013669289
0.0000969998,0.0000000000,0.0001209257,0.0001209257
0.0000974998,0.0000000000,0.0012744552,0.0012744552
0.0000979998,0.0000000000,0.0021860814,0.0021860814
0.0000984998,0.0000000000,0.0027798077,0.0027798077
0.0000989998,0.0000000000,0.0027337857,0.0027337857
0.0000994998,0.0000000000,0.0019127445,0.0019127445
0.0000999998,0.0000000000,0.0005623326,0.0005623326
0.0001004997,0.0000000000,-0.0008872220,-0.0008872220
0.0001009997,0.0000000000,-0.0019849921,-0.0019849921
0.0001014997,0.0000000000,-0.0024505572,-0.0024505572
0.0001019997,0.0000000000,-0.0024466338,-0.0024466338
0.0001024997,0.0000000000,-0.0024263978,-0.0024263978
0.0001029997,0.0000000000,-0.0025666994,-0.0025666994
0.0001034997,0.0000000000,-0.0026066899,-0.0026066899
0.0001039997,0.0000000000,-0.0022743731,-0.0022743731
0.0001044997,0.0000000000,-0.0015933744,-0.0015933744
0.0001049997,0.0000000000,-0.0007877932,-0.0007877932
0.0001054997,0.0000000000,-0.0000981559,-0.0000981559
0.0001059997,0.0000000000,0.0003583871,0.0003583871
0.0001064997,0.0000000000,0.0006063441,0.0006063441
0.0001069997,0.0000000000,0.0005962069,0.0005962069
0.0001074997,0.0000000000,0.0001535652,0.0001535652
0.0001079997,0.0000000000,-0.0005859642,-0.0005859642
0.0001084997,0.0000000000,-0.0010134786,-0.0010134786
0.0001089997,0.0000000000,-0.0007717675,-0.0007717675
0.0001094997,0.0000000000,-0.0003192503,-0.0003192503
0.0001099997,0.0000000000,-0.0002629465,-0.0002629465
0.0001104997,0.0000000000,-0.0004789429,-0.0004789429
0.0001109997,0.0000000000,-0.0004692490,-0.0004692490
0.0001114997,0.0000000000,-0.0002684964,-0.0002684964
0.0001119997,0.0000000000,-0.0003287509,-0.0003287509
0.0001124997,0.0000000000,-0.0006596640,-0.0006596640
0.0001129997,0.0000000000,-0.0007518431,-0.0007518431
0.0001134997,0.0000000000,-0.0004167336,-0.0004167336
0.0001139997,0.0000000000,-0.0001239822,-0.0001239822
0.0001144996,0.0000000000,-0.0002652325,-0.0002652325
0.0001149996,0.0000000000,-0.0005655506,-0.0005655506
0.0001154996,0.0000000000,-0.0005994702,-0.0005994702
0.0001159996,0.0000000000,-0.0004596340,-0.0004596340
0.0001164996,0.0000000000,-0.0004215657,-0.0004215657
0.0001169996,0.0000000000,-0.0003766007,-0.0003766007
0.0001174996,0.0000000000,-0.0002046709,-0.0002046709
0.0001179996,0.0000000000,-0.0002377598,-0.0002377598
0.0001184996,0.0000000000,-0.0006287282,-0.0006287282
0.0001189996,0.0000000000,-0.0007936097,-0.0007936097
0.0001194996,0.0000000000,-0.0003254778,-0.0003254778
0.0001199996,0.0000000000,0.0001231007,0.0001231007
0.0001204996,0.0000000000,-0.0001775787,-0.0001775787
0.0001209996,0.0000000000,-0.0007684459,-0.0007684459
0.0001214996,0.0000000000,-0.0007438767,-0.0007438767
0.0001219996,0.0000000000,-0.0002128728,-0.0002128728
0.0001224996,0.0000000000,0.0000091857,0.0000091857
0.0001229996,0.0000000000,-0.0002738614,-0.0002738614
0.0001234996,0.0000000000,-0.0005515657,-0.0005515657
0.0001239996,0.0000000000,-0.0005196484,-0.0005196484
0.0001244996,0.0000000000,-0.0003399506,-0.0003399506
0.0001249996,0.0000000000,-0.0002186766,-0.0002186766
0.0001254996,0.0000000000,-0.0002207467,-0.0002207467
0.0001259996,0.0000000000,-0.0003258078,-0.0003258078
0.0001264996,0.0000000000,-0.0004210277,-0.0004210277
0.0001269996,0.0000000000,-0.0004009747,-0.0004009747
0.0001274996,0.0000000000,-0.0003137217,-0.0003137217
0.0001279996,0.0000000000,-0.0002552048,-0.0002552048
0.0001284996,0.0000000000,-0.0002357237,-0.0002357237
0.0001289996,0.0000000000,-0.0002709035,-0.0002709035
0.0001294996,0.0000000000,-0.0003762301,-0.0003762301
0.0001299997,0.0000000000,-0.0004189249,-0.0004189249
0.0001304997,0.0000000000,-0.0002861238,-0.0002861238
0.0001309997,0.0000000000,-0.0001562730,-0.0001562730
0.0001314997,0.0000000000,-0.0002326006,-0.0002326006
0.0001319997,0.0000000000,-0.0003640592,-0.0003640592
0.0001324997,0.0000000000,-0.0003379646,-0.0003379646
0.0001329997,0.0000000000,-0.0002705710,-0.0002705710
0.0001334997,0.0000000000,-0.0002938969,-0.0002938969
0.0001339997,0.0000000000,-0.0002610262,-0.0002610262
0.0001344997,0.0000000000,-0.0001499116,-0.0001499116
0.0001349997,0.0000000000,-0.0002206616,-0.0002206616
0.0001354997,0.0000000000,-0.0004368584,-0.0004368584
0.0001359997,0.0000000000,-0.0003991986,-0.0003991986
0.0001364997,0.0000000000,-0.0001154996,-0.0001154996
0.0001369997,0.0000000000,-0.0000598219,-0.0000598219
0.0001374997,0.0000000000,-0.0002994693,-0.0002994693
0.0001379997,0.0000000000,-0.0004072002,-0.0004072002
0.0001384997,0.0000000000,-0.0002836427,-0.0002836427
0.0001389997,0.0000000000,-0.0002087427,-0.0002087427
0.0001394997,0.0000000000,-0.0001981929,-0.0001981929
0.0001399997,0.0000000000,-0.0001311620,-0.0001311620
0.0001404997,0.0000000000,-0.0001894489,-0.0001894489
0.0001409997,0.0000000000,-0.0004190127,-0.0004190127
0.0001414997,0.0000000000,-0.0004109089,-0.0004109089
0.0001419997,0.0000000000,-0.0000745214,-0.0000745214
0.0001424997,0.0000000000,0.0000409243,0.0000409243
0.0001429998,0.0000000000,-0.0002653404,-0.0002653404
0.0001434998,0.0000000000,-0.0004644678,-0.0004644678
0.0001439998,0.0000000000,-0.0002908665,-0.0002908665
0.0001444998,0.0000000000,-0.0001111700,-0.0001111700
0.0001449998,0.0000000000,-0.0001164134,-0.0001164134
0.0001454998,0.0000000000,-0.0001421824,-0.0001421824
0.0001459998,0.0000000000,-0.0002221817,-0.0002221817
0.0001464998,0.0000000000,-0.0003990061,-0.0003990061
0.0001469998,0.0000000000,-0.0003510911,-0.0003510911
0.0001474998,0.0000000000,-0.0000162765,-0.0000162765
0.0001479998,0.0000000000,0.0000692268,0.0000692268
0.0001484998,0.0000000000,-0.0002784873,-0.0002784873
0.0001489998,0.0000000000,-0.0004851214,-0.0004851214
0.0001494998,0.0000000000,-0.0002583133,-0.0002583133
0.0001499998,0.0000000000,-0.0000273638,-0.0000273638
0.0001504998,0.0000000000,-0.0000625044,-0.0000625044
0.0001509998,0.0000000000,-0.0001676907,-0.0001676907
0.0001514998,0.0000000000,-0.0002664351,-0.0002664351
0.0001519998,0.0000000000,-0.0003709488,-0.0003709488
0.0001524998,0.0000000000,-0.0002593687,-0.0002593687
0.0001529998,0.0000000000,0.0000415114,0.0000415114
0.0001534998,0.0000000000,0.0000462464,0.0000462464
0.0001539998,0.0000000000,-0.0003188203,-0.0003188203
0.0001544998,0.0000000000,-0.0004692335,-0.0004692335
0.0001549998,0.0000000000,-0.0001925551,-0.0001925551
0.0001554998,0.0000000000,0.0000348247,0.0000348247
0.0001559998,0.0000000000,-0.0000453324,-0.0000453324
0.0001564999,0.0000000000,-0.0002015521,-0.0002015521
0.0001569999,0.0000000000,-0.0002989584,-0.0002989584
0.0001574999,0.0000000000,-0.0003274645,-0.0003274645
0.0001579999,0.0000000000,-0.0001601118,-0.0001601118
0.0001584999,0.0000000000,0.0000804054,0.0000804054
0.0001589999,0.0000000000,-0.0000099380,-0.0000099380
0.0001594999,0.0000000000,-0.0003613241,-0.0003613241
0.0001599999,0.0000000000,-0.0004211374,-0.0004211374
0.0001604999,0.0000000000,-0.0001121442,-0.0001121442
0.0001609999,0.0000000000,0.0000713250,0.0000713250
0.0001614999,0.0000000000,-0.0000579306,-0.0000579306
0.0001619999,0.0000000000,-0.0002367208,-0.0002367208
0.0001624999,0.0000000000,-0.0003116207,-0.0003116207
0.0001629999,0.0000000000,-0.0002680412,-0.0002680412
0.0001634999,0.0000000000,-0.0000686845,-0.0000686845
0.0001639999,0.0000000000,0.0000908960,0.0000908960
0.0001644999,0.0000000000,-0.0000831848,-0.0000831848
0.0001649999,0.0000000000,-0.0003879442,-0.0003879442
0.0001654999,0.0000000000,-0.0003486365,-0.0003486365
0.0001659999,0.0000000000,-0.0000343455,-0.0000343455
0.0001664999,0.0000000000,0.0000818129,0.0000818129
0.0001669999,0.0000000000,-0.0000895602,-0.0000895602
0.0001674999,0.0000000000,-0.0002665153,-0.0002665153
0.0001679999,0.0000000000,-0.0003027546,-0.0003027546
0.0001684999,0.0000000000,-0.0001973268,-0.0001973268
0.0001689999,0.0000000000,0.0000043776,0.0000043776
0.0001695000,0.0000000000,0.0000720762,0.0000720762
0.0001700000,0.0000000000,-0.0001585896,-0.0001585896
0.0001705000,0.0000000000,-0.0003895577,-0.0003895577
0.0001710000,0.0000000000,-0.0002621372,-0.0002621372
0.0001715000,0.0000000000,0.0000289316,0.0000289316
0.0001720000,0.0000000000,0.0000694154,0.0000694154
0.0001725000,0.0000000000,-0.0001302420,-0.0001302420
0.0001730000,0.0000000000,-0.0002857441,-0.0002857441
0.0001735000,0.0000000000,-0.0002738235,-0.0002738235
0.0001740000,0.0000000000,-0.0001228001,-0.0001228001
0.0001745000,0.0000000000,0.0000524249,0.0000524249
0.0001750000,0.0000000000,0.0000294072,0.0000294072
0.0001755000,0.0000000000,-0.0002236150,-0.0002236150
0.0001760000,0.0000000000,-0.0003648216,-0.0003648216
0.0001765000,0.0000000000,-0.0001725720,-0.0001725720
0.0001770000,0.0000000000,0.0000715146,0.0000715146
0.0001775000,0.0000000000,0.0000393500,0.0000393500
0.0001780000,0.0000000000,-0.0001719418,-0.0001719418
0.0001785000,0.0000000000,-0.0002909450,-0.0002909450
0.0001790000,0.0000000000,-0.0002284409,-0.0002284409
0.0001795000,0.0000000000,-0.0000528363,-0.0000528363
0.0001800000,0.0000000000,0.0000729173,0.0000729173
0.0001805000,0.0000000000,-0.0000279361,-0.0000279361
0.0001810000,0.0000000000,-0.0002695421,-0.0002695421
0.0001815000,0.0000000000,-0.0003178402,-0.0003178402
0.0001820000,0.0000000000,-0.0000893526,-0.0000893526
0.0001825001,0.0000000000,0.0000917716,0.0000917716
0.0001830001,0.0000000000,-0.0000025206,-0.0000025206
0.0001835001,0.0000000000,-0.0002084392,-0.0002084392
0.0001840001,0.0000000000,-0.0002803790,-0.0002803790
0.0001845001,0.0000000000,-0.0001720240,-0.0001720240
0.0001850001,0.0000000000,0.0000049286,0.0000049286
0.0001855001,0.0000000000,0.0000674182,0.0000674182
