time[s],Transmitted signal[dBSPL],Received signal1[dBSPL],Received signal2[dB],center[dB]
0.0000000000,-0.0099949827,0.0000000000,0.0000000000
0.0000005000,-0.0229087174,0.0000000000,0.0000000000
0.0000010000,-0.0334439017,0.0000000000,0.0000000000
0.0000015000,-0.0402728543,0.0000000000,0.0000000000
0.0000020000,-0.0424708240,0.0000000000,0.0000000000
0.0000025000,-0.0396377705,0.0000000000,0.0000000000
0.0000030000,-0.0319611393,0.0000000000,0.0000000000
0.0000035000,-0.0202111267,0.0000000000,0.0000000000
0.0000040000,-0.0056668525,0.0000000000,0.0000000000
0.0000045000,0.0100198211,0.0000000000,0.0000000000
0.0000050000,0.0250086784,0.0000000000,0.0000000000
0.0000055000,0.0374835096,0.0000000000,0.0000000000
0.0000060000,0.0458682701,0.0000000000,0.0000000000
0.0000065000,0.0490220077,0.0000000000,0.0000000000
0.0000070000,0.0463882275,0.0000000000,0.0000000000
0.0000075000,0.0380809978,0.0000000000,0.0000000000
0.0000080000,0.0248939134,0.0000000000,0.0000000000
0.0000085000,0.0082305241,0.0000000000,0.0000000000
0.0000090000,-0.0100413021,0.0000000000,0.0000000000
0.0000095000,-0.0277930535,0.0000000000,0.0000000000
0.0000100000,-0.0428779796,0.0000000000,0.0000000000
0.0000105000,-0.0533853285,0.0000000000,0.0000000000
0.0000110000,-0.0578745194,0.0000000000,0.0000000000
0.0000115000,-0.0555643030,0.0000000000,0.0000000000
0.0000120000,-0.0464511029,0.0000000000,0.0000000000
0.0000125000,-0.0313410349,0.0000000000,0.0000000000
0.0000130000,-0.0117876017,0.0000000000,0.0000000000
0.0000135000,0.0100595448,0.0000000000,0.0000000000
0.0000140000,0.0316832848,0.0000000000,0.0000000000
0.0000145000,0.0504794717,-0.0000000000,-0.0000000000
0.0000150000,0.0640599653,-0.0000000000,-0.0000000000
0.0000155000,0.0705438629,-0.0000000000,-0.0000000000
0.0000160000,0.0688024312,-0.0000000000,-0.0000000000
0.0000165000,0.0586279966,-0.0000000000,-0.0000000000
0.0000170000,0.0408035591,-0.0000000000,-0.0000000000
0.0000175000,0.0170606859,-0.0000000000,-0.0000000000
0.0000180000,-0.0100744218,-0.0000000001,-0.0000000001
0.0000185000,-0.0375349671,-0.0000000007,-0.0000000007
0.0000190000,-0.0620422848,-0.0000000029,-0.0000000029
0.0000195000,-0.0804766864,-0.0000000116,-0.0000000116
0.0000200000,-0.0902505070,-0.0000000423,-0.0000000423
0.0000205000,-0.0896395743,-0.0000001410,-0.0000001410
0.0000210000,-0.0780358091,-0.0000004324,-0.0000004324
0.0000215000,-0.0560866892,-0.0000012262,-0.0000012262
0.0000220000,-0.0257013645,-0.0000032270,-0.0000032270
0.0000225000,0.0100860642,-0.0000079037,-0.0000079037
0.0000230000,0.0473880433,-0.0000180557,-0.0000180557
0.0000235000,0.0818468779,-0.0000385329,-0.0000385329
0.0000240000,0.1090967655,-0.0000768939,-0.0000768939
0.0000245000,0.1252558231,-0.0001435228,-0.0001435228
0.0000250000,0.1274006516,-0.0002504509,-0.0002504509
0.0000255000,0.1139688045,-0.0004080386,-0.0004080386
0.0000260000,0.0850444809,-0.0006190506,-0.0006190506
0.0000265000,0.0424907058,-0.0008707427,-0.0008707427
0.0000270000,-0.0100943409,-0.0011273212,-0.0011273212
0.0000275000,-0.0676022694,-0.0013269184,-0.0013269184
0.0000280000,-0.1238057613,-0.0013879088,-0.0013879088
0.0000285000,-0.1718885750,-0.0012276792,-0.0012276792
0.0000290000,-0.2050649226,-0.0007922795,-0.0007922795
0.0000295000,-0.2172335386,-0.0000886603,-0.0000886603
0.0000300000,-0.2036044747,0.0007944914,0.0007944914
0.0000305000,-0.1612349898,0.0016916044,0.0016916044
0.0000310000,-0.0894210562,0.0023970590,0.0023970590
0.0000315000,0.0100993235,0.0027258755,0.0027258755
0.0000320000,0.1331564784,0.0025760373,0.0025760373
0.0000325000,0.2733794451,0.0019645009,0.0019645009
0.0000330000,0.4226319790,0.0010170754,0.0010170754
0.0000335000,0.5716199279,-0.0000853979,-0.0000853979
0.0000340000,0.7106176019,-0.0011752140,-0.0011752140
0.0000345000,0.8302505612,-0.0021395115,-0.0021395115
0.0000350000,0.9222652912,-0.0029134231,-0.0029134231
0.0000355000,0.9802147746,-0.0034388315,-0.0034388315
0.0000360000,1.0000000000,-0.0036257019,-0.0036257019
0.0000365000,0.9802147746,-0.0033502388,-0.0033502388
0.0000370000,0.9222652912,-0.0025075858,-0.0025075858
0.0000375000,0.8302505612,-0.0011058667,-0.0011058667
0.0000380000,0.7106176019,0.0006614459,0.0006614459
0.0000385000,0.5716199279,0.0024463795,0.0024463795
0.0000390000,0.4226319790,0.0038846987,0.0038846987
0.0000395000,0.2733794451,0.0047346381,0.0047346381
0.0000400000,0.1331564784,0.0049194791,0.0049194791
0.0000405000,0.0100993235,0.0044993842,0.0044993842
0.0000410000,-0.0894210562,0.0036309285,0.0036309285
0.0000415000,-0.1612349898,0.0024870401,0.0024870401
0.0000420000,-0.2036044747,0.0011392337,0.0011392337
0.0000425000,-0.2172335386,-0.0004428319,-0.0004428319
0.0000430000,-0.2050649226,-0.0021999106,-0.0021999106
0.0000435000,-0.1718885750,-0.0038517709,-0.0038517709
0.0000440000,-0.1238057613,-0.0050682267,-0.0050682267
0.0000445000,-0.0676022694,-0.0057057729,-0.0057057729
0.0000450000,-0.0100943409,-0.0057362500,-0.0057362500
0.0000455000,0.0424907058,-0.0050522969,-0.0050522969
0.0000460000,0.0850444809,-0.0035947941,-0.0035947941
0.0000465000,0.1139688045,-0.0016129953,-0.0016129953
0.0000470000,0.1274006516,0.0005001728,0.0005001728
0.0000475000,0.1252558231,0.0025998657,0.0025998657
0.0000480000,0.1090967655,0.0046843933,0.0046843933
0.0000485000,0.0818468779,0.0064476784,0.0064476784
0.0000490000,0.0473880433,0.0073827240,0.0073827240
0.0000495000,0.0100860642,0.0073681842,0.0073681842
0.0000500000,-0.0257013645,0.0066840542,0.0066840542
0.0000505000,-0.0560866892,0.0053852443,0.0053852443
0.0000510000,-0.0780358091,0.0031971026,0.0031971026
0.0000515000,-0.0896395743,0.0001755836,0.0001755836
0.0000520000,-0.0902505070,-0.0030636224,-0.0030636224
0.0000525000,-0.0804766864,-0.0059656836,-0.0059656836
0.0000530000,-0.0620422848,-0.0083939452,-0.0083939452
0.0000535000,-0.0375349671,-0.0102043878,-0.0102043878
0.0000540000,-0.0100744218,-0.0109882243,-0.0109882243
0.0000545000,0.0170606859,-0.0104669789,-0.0104669789
0.0000550000,0.0408035591,-0.0087161148,-0.0087161148
0.0000555000,0.0586279966,-0.0058281207,-0.0058281207
0.0000560000,0.0688024312,-0.0017601424,-0.0017601424
0.0000565000,0.0705438629,0.0033309031,0.0033309031
0.0000570000,0.0640599653,0.0089382036,0.0089382036
0.0000575000,0.0504794717,0.0144984471,0.0144984471
0.0000580000,0.0316832848,0.0196013488,0.0196013488
0.0000585000,0.0100595448,0.0239214450,0.0239214450
0.0000590000,-0.0117876017,0.0271811057,0.0271811057
0.0000595000,-0.0313410349,0.0291749928,0.0291749928
0.0000600000,-0.0464511029,0.0297160130,0.0297160130
0.0000605000,-0.0555643030,0.0286598280,0.0286598280
0.0000610000,-0.0578745194,0.0260715261,0.0260715261
0.0000615000,-0.0533853285,0.0222742166,0.0222742166
0.0000620000,-0.0428779796,0.0177339017,0.0177339017
0.0000625000,-0.0277930535,0.0129611511,0.0129611511
0.0000630000,-0.0100413021,0.0083739273,0.0083739273
0.0000635000,0.0082305241,0.0041604326,0.0041604326
0.0000640000,0.0248939134,0.0004925360,0.0004925360
0.0000645000,0.0380809978,-0.0021314060,-0.0021314060
0.0000650000,0.0463882275,-0.0031766179,-0.0031766179
0.0000655000,0.0490220077,-0.0027242778,-0.0027242778
0.0000660000,0.0458682701,-0.0013312943,-0.0013312943
0.0000665000,0.0374835096,0.0007316162,0.0007316162
0.0000670000,0.0250086784,0.0035035247,0.0035035247
0.0000675000,0.0100198211,0.0066716578,0.0066716578
0.0000680000,-0.0056668525,0.0095688654,0.0095688654
0.0000685000,-0.0202111267,0.0117804073,0.0117804073
0.0000690000,-0.0319611393,0.0131567763,0.0131567763
0.0000695000,-0.0396377705,0.0133993588,0.0133993588
0.0000700000,-0.0424708240,0.0122252516,0.0122252516
0.0000705000,-0.0402728543,0.0097434931,0.0097434931
0.0000710000,-0.0334439017,0.0062299832,0.0062299832
0.0000714999,-0.0229087174,0.0018507452,0.0018507452
0.0000719999,-0.0099949827,-0.0030949037,-0.0030949037
0.0000724999,0.0037304156,-0.0081102187,-0.0081102187
0.0000729999,0.0000000000,-0.0128670502,-0.0128670502
0.0000734999,0.0000000000,-0.0171393659,-0.0171393659
0.0000739999,0.0000000000,-0.0203980282,-0.0203980282
0.0000744999,0.0000000000,-0.0221106764,-0.0221106764
0.0000749999,0.0000000000,-0.0223540720,-0.0223540720
0.0000754999,0.0000000000,-0.0215133931,-0.0215133931
0.0000759999,0.0000000000,-0.0196044389,-0.0196044389
0.0000764999,0.0000000000,-0.0164957922,-0.0164957922
0.0000769999,0.0000000000,-0.0124907866,-0.0124907866
0.0000774999,0.0000000000,-0.0081638414,-0.0081638414
0.0000779999,0.0000000000,-0.0039538285,-0.0039538285
0.0000784999,0.0000000000,-0.0002308665,-0.0002308665
0.0000789999,0.0000000000,0.0026858770,0.0026858770
0.0000794999,0.0000000000,0.0047559417,0.0047559417
0.0000799999,0.0000000000,0.0060161715,0.0060161715
0.0000804999,0.0000000000,0.0062146876,0.0062146876
0.0000809999,0.0000000000,0.0051582376,0.0051582376
0.0000814999,0.0000000000,0.0032122806,0.0032122806
0.0000819999,0.0000000000,0.0009392891,0.0009392891
0.0000824999,0.0000000000,-0.0014565904,-0.0014565904
0.0000829999,0.0000000000,-0.0039029811,-0.0039029811
0.0000834999,0.0000000000,-0.0060994998,-0.0060994998
0.0000839999,0.0000000000,-0.0077423011,-0.0077423011
0.0000844999,0.0000000000,-0.0087091140,-0.0087091140
0.0000849999,0.0000000000,-0.0088707227,-0.0088707227
0.0000854999,0.0000000000,-0.0081572393,-0.0081572393
0.0000859998,0.0000000000,-0.0068039331,-0.0068039331
0.0000864998,0.0000000000,-0.0051148804,-0.0051148804
0.0000869998,0.0000000000,-0.0031487118,-0.0031487118
0.0000874998,0.0000000000,-0.0009918627,-0.0009918627
0.0000879998,0.0000000000,0.0009876674,0.0009876674
0.0000884998,0.0000000000,0.0024821835,0.0024821835
0.0000889998,0.0000000000,0.0034693296,0.0034693296
0.0000894998,0.0000000000,0.0039155157,0.0039155157
0.0000899998,0.0000000000,0.0036891019,0.0036891019
0.0000904998,0.0000000000,0.0028505118,0.0028505118
0.0000909998,0.0000000000,0.0016239858,0.0016239858
0.0000914998,0.0000000000,0.0001302860,0.0001302860
0.0000919998,0.0000000000,-0.0015179889,-0.0015179889
0.0000924998,0.0000000000,-0.0030550300,-0.0030550300
0.0000929998,0.0000000000,-0.0042778226,-0.0042778226
0.0000934998,0.0000000000,-0.0051582209,-0.0051582209
0.0000939998,0.0000000000,-0.0055960794,-0.0055960794
0.0000944998,0.0000000000,-0.0054212590,-0.0054212590
0.0000949998,0.0000000000,-0.0047010863,-0.0047010863
0.0000954998,0.0000000000,-0.0036804262,-0.0036804262
0.0000959998,0.0000000000,-0.0024618725,-0.0024618725
0.0000964998,0.0000000000,-0.0010742894,-0.0010742894
0.0000969998,0.0000000000,0.0002935946,0.0002935946
0.0000974998,0.0000000000,0.0014106125,0.0014106125
0.0000979998,0.0000000000,0.0021611310,0.0021611310
0.0000984998,0.0000000000,0.0024401785,0.0024401785
0.0000989998,0.0000000000,0.0021646244,0.0021646244
0.0000994998,0.0000000000,0.0014495028,0.0014495028
0.0000999998,0.0000000000,0.0005014387,0.0005014387
0.0001004997,0.0000000000,-0.0006047873,-0.0006047873
0.0001009997,0.0000000000,-0.0017866539,-0.0017866539
0.0001014997,0.0000000000,-0.0027625395,-0.0027625395
0.0001019997,0.0000000000,-0.0032607978,-0.0032607978
0.0001024997,0.0000000000,-0.0032530366,-0.0032530366
0.0001029997,0.0000000000,-0.0028477036,-0.0028477036
0.0001034997,0.0000000000,-0.0021805784,-0.0021805784
0.0001039997,0.0000000000,-0.0014580318,-0.0014580318
0.0001044997,0.0000000000,-0.0008579764,-0.0008579764
0.0001049997,0.0000000000,-0.0003883975,-0.0003883975
0.0001054997,0.0000000000,-0.0000125454,-0.0000125454
0.0001059997,0.0000000000,0.0002170248,0.0002170248
0.0001064997,0.0000000000,0.0002917702,0.0002917702
0.0001069997,0.0000000000,0.0003085161,0.0003085161
0.0001074997,0.0000000000,0.0002813181,0.0002813181
0.0001079997,0.0000000000,0.0001014711,0.0001014711
0.0001084997,0.0000000000,-0.0002603916,-0.0002603916
0.0001089997,0.0000000000,-0.0006890211,-0.0006890211
0.0001094997,0.0000000000,-0.0010258785,-0.0010258785
0.0001099997,0.0000000000,-0.0011051123,-0.0011051123
0.0001104997,0.0000000000,-0.0008337640,-0.0008337640
0.0001109997,0.0000000000,-0.0003672778,-0.0003672778
0.0001114997,0.0000000000,-0.0000349552,-0.0000349552
0.0001119997,0.0000000000,-0.0000072115,-0.0000072115
0.0001124997,0.0000000000,-0.0001989510,-0.0001989510
0.0001129997,0.0000000000,-0.0004735803,-0.0004735803
0.0001134997,0.0000000000,-0.0007174163,-0.0007174163
0.0001139997,0.0000000000,-0.0007761210,-0.0007761210
0.0001144996,0.0000000000,-0.0005812031,-0.0005812031
0.0001149996,0.0000000000,-0.0003113452,-0.0003113452
0.0001154996,0.0000000000,-0.0002158470,-0.0002158470
0.0001159996,0.0000000000,-0.0003067652,-0.0003067652
0.0001164996,0.0000000000,-0.0003979184,-0.0003979184
0.0001169996,0.0000000000,-0.0004123303,-0.0004123303
0.0001174996,0.0000000000,-0.0004539254,-0.0004539254
0.0001179996,0.0000000000,-0.0005425279,-0.0005425279
0.0001184996,0.0000000000,-0.0005061745,-0.0005061745
0.0001189996,0.0000000000,-0.0002991982,-0.0002991982
0.0001194996,0.0000000000,-0.0001957649,-0.0001957649
0.0001199996,0.0000000000,-0.0003700148,-0.0003700148
0.0001204996,0.0000000000,-0.0005252166,-0.0005252166
0.0001209996,0.0000000000,-0.0003720034,-0.0003720034
0.0001214996,0.0000000000,-0.0001992512,-0.0001992512
0.0001219996,0.0000000000,-0.0003814068,-0.0003814068
0.0001224996,0.0000000000,-0.0006209047,-0.0006209047
0.0001229996,0.0000000000,-0.0004286774,-0.0004286774
0.0001234996,0.0000000000,-0.0000635186,-0.0000635186
0.0001239996,0.0000000000,-0.0001279553,-0.0001279553
0.0001244996,0.0000000000,-0.0004965549,-0.0004965549
0.0001249996,0.0000000000,-0.0005647484,-0.0005647484
0.0001254996,0.0000000000,-0.0003168426,-0.0003168426
0.0001259996,0.0000000000,-0.0002267568,-0.0002267568
0.0001264996,0.0000000000,-0.0003353589,-0.0003353589
0.0001269996,0.0000000000,-0.0003107835,-0.0003107835
0.0001274996,0.0000000000,-0.0001957287,-0.0001957287
0.0001279996,0.0000000000,-0.0002846656,-0.0002846656
0.0001284996,0.0000000000,-0.0004772391,-0.0004772391
0.0001289996,0.0000000000,-0.0004464966,-0.0004464966
0.0001294996,0.0000000000,-0.0002332563,-0.0002332563
0.0001299997,0.0000000000,-0.0001299819,-0.0001299819
0.0001304997,0.0000000000,-0.0002053721,-0.0002053721
0.0001309997,0.0000000000,-0.0003297809,-0.0003297809
0.0001314997,0.0000000000,-0.0004180014,-0.0004180014
0.0001319997,0.0000000000,-0.0004085354,-0.0004085354
0.0001324997,0.0000000000,-0.0002680018,-0.0002680018
0.0001329997,0.0000000000,-0.0001219075,-0.0001219075
0.0001334997,0.0000000000,-0.0001354162,-0.0001354162
0.0001339997,0.0000000000,-0.0002835252,-0.0002835252
0.0001344997,0.0000000000,-0.0004222390,-0.0004222390
0.0001349997,0.0000000000,-0.0004414013,-0.0004414013
0.0001354997,0.0000000000,-0.0002706281,-0.0002706281
0.0001359997,0.0000000000,-0.0000165072,-0.0000165072
0.0001364997,0.0000000000,-0.0000272468,-0.0000272468
0.0001369997,0.0000000000,-0.0003902945,-0.0003902945
0.0001374997,0.0000000000,-0.0005969844,-0.0005969844
0.0001379997,0.0000000000,-0.0002897271,-0.0002897271
0.0001384997,0.0000000000,0.0000540428,0.0000540428
0.0001389997,0.0000000000,-0.0000968383,-0.0000968383
0.0001394997,0.0000000000,-0.0004078070,-0.0004078070
0.0001399997,0.0000000000,-0.0003550843,-0.0003550843
0.0001404997,0.0000000000,-0.0001611722,-0.0001611722
0.0001409997,0.0000000000,-0.0002155449,-0.0002155449
0.0001414997,0.0000000000,-0.0003031499,-0.0003031499
0.0001419997,0.0000000000,-0.0001797119,-0.0001797119
0.0001424997,0.0000000000,-0.0001146390,-0.0001146390
0.0001429998,0.0000000000,-0.0002586787,-0.0002586787
0.0001434998,0.0000000000,-0.0003199091,-0.0003199091
0.0001439998,0.0000000000,-0.0002241809,-0.0002241809
0.0001444998,0.0000000000,-0.0002127177,-0.0002127177
0.0001449998,0.0000000000,-0.0002265274,-0.0002265274
0.0001454998,0.0000000000,-0.0000976215,-0.0000976215
0.0001459998,0.0000000000,-0.0000922996,-0.0000922996
0.0001464998,0.0000000000,-0.0003698446,-0.0003698446
0.0001469998,0.0000000000,-0.0004579150,-0.0004579150
0.0001474998,0.0000000000,-0.0001108922,-0.0001108922
0.0001479998,0.0000000000,0.0001082780,0.0001082780
0.0001484998,0.0000000000,-0.0001592000,-0.0001592000
0.0001489998,0.0000000000,-0.0004322215,-0.0004322215
0.0001494998,0.0000000000,-0.0003315792,-0.0003315792
0.0001499998,0.0000000000,-0.0001371480,-0.0001371480
0.0001504998,0.0000000000,-0.0000807913,-0.0000807913
0.0001509998,0.0000000000,-0.0000749185,-0.0000749185
0.0001514998,0.0000000000,-0.0001686209,-0.0001686209
0.0001519998,0.0000000000,-0.0003766657,-0.0003766657
0.0001524998,0.0000000000,-0.0003603328,-0.0003603328
0.0001529998,0.0000000000,-0.0000423959,-0.0000423959
0.0001534998,0.0000000000,0.0000714312,0.0000714312
0.0001539998,0.0000000000,-0.0002113363,-0.0002113363
0.0001544998,0.0000000000,-0.0003939264,-0.0003939264
0.0001549998,0.0000000000,-0.0002297838,-0.0002297838
0.0001554998,0.0000000000,-0.0000792490,-0.0000792490
0.0001559998,0.0000000000,-0.0001184782,-0.0001184782
0.0001564999,0.0000000000,-0.0001477576,-0.0001477576
0.0001569999,0.0000000000,-0.0001609601,-0.0001609601
0.0001574999,0.0000000000,-0.0002556480,-0.0002556480
0.0001579999,0.0000000000,-0.0002533015,-0.0002533015
0.0001584999,0.0000000000,-0.0000851697,-0.0000851697
0.0001589999,0.0000000000,-0.0000479831,-0.0000479831
0.0001594999,0.0000000000,-0.0002112693,-0.0002112693
0.0001599999,0.0000000000,-0.0002539610,-0.0002539610
0.0001604999,0.0000000000,-0.0001298229,-0.0001298229
0.0001609999,0.0000000000,-0.0001194444,-0.0001194444
0.0001614999,0.0000000000,-0.0002035105,-0.0002035105
0.0001619999,0.0000000000,-0.0001580601,-0.0001580601
0.0001624999,0.0000000000,-0.0000841143,-0.0000841143
0.0001629999,0.0000000000,-0.0001594299,-0.0001594299
0.0001634999,0.0000000000,-0.0002272981,-0.0002272981
0.0001639999,0.0000000000,-0.0001549901,-0.0001549901
0.0001644999,0.0000000000,-0.0001079389,-0.0001079389
0.0001649999,0.0000000000,-0.0001502414,-0.0001502414
0.0001654999,0.0000000000,-0.0001391779,-0.0001391779
0.0001659999,0.0000000000,-0.0001104520,-0.0001104520
0.0001664999,0.0000000000,-0.0001876761,-0.0001876761
0.0001669999,0.0000000000,-0.0002297484,-0.0002297484
0.0001674999,0.0000000000,-0.0001066047,-0.0001066047
0.0001679999,0.0000000000,-0.0000258215,-0.0000258215
0.0001684999,0.0000000000,-0.0001377899,-0.0001377899
0.0001689999,0.0000000000,-0.0002382829,-0.0002382829
0.0001695000,0.0000000000,-0.0001798235,-0.0001798235
0.0001700000,0.0000000000,-0.0001010804,-0.0001010804
0.0001705000,0.0000000000,-0.0000911737,-0.0000911737
0.0001710000,0.0000000000,-0.0000954719,-0.0000954719
0.0001715000,0.0000000000,-0.0001370046,-0.0001370046
0.0001720000,0.0000000000,-0.0002192318,-0.0002192318
0.0001725000,0.0000000000,-0.0001939883,-0.0001939883
0.0001730000,0.0000000000,-0.0000513523,-0.0000513523
0.0001735000,0.0000000000,-0.0000205417,-0.0000205417
0.0001740000,0.0000000000,-0.0001579089,-0.0001579089
0.0001745000,0.0000000000,-0.0002351422,-0.0002351422
0.0001750000,0.0000000000,-0.0001564665,-0.0001564665
0.0001755000,0.0000000000,-0.0000725123,-0.0000725123
0.0001760000,0.0000000000,-0.0000676829,-0.0000676829
0.0001765000,0.0000000000,-0.0001008809,-0.0001008809
0.0001770000,0.0000000000,-0.0001607377,-0.0001607377
0.0001775000,0.0000000000,-0.0002040040,-0.0002040040
0.0001780000,0.0000000000,-0.0001370884,-0.0001370884
0.0001785000,0.0000000000,-0.0000267223,-0.0000267223
0.0001790000,0.0000000000,-0.0000513160,-0.0000513160
0.0001795000,0.0000000000,-0.0001774423,-0.0001774423
0.0001800000,0.0000000000,-0.0002049333,-0.0002049333
0.0001805000,0.0000000000,-0.0001142331,-0.0001142331
0.0001810000,0.0000000000,-0.0000550013,-0.0000550013
0.0001815000,0.0000000000,-0.0000749492,-0.0000749492
0.0001820000,0.0000000000,-0.0001192294,-0.0001192294
0.0001825001,0.0000000000,-0.0001612043,-0.0001612043
0.0001830001,0.0000000000,-0.0001637729,-0.0001637729
0.0001835001,0.0000000000,-0.0000919435,-0.0000919435
0.0001840001,0.0000000000,-0.0000324925,-0.0000324925
0.0001845001,0.0000000000,-0.0000884537,-0.0000884537
0.0001850001,0.0000000000,-0.0001775409,-0.0001775409
