time[s],Transmitted signal[dBSPL],Received signal1[dBSPL],Received signal2[dB],center[dB]
0.0000000000,-0.0099949827,0.0000000000,0.0000000000
0.0000005000,-0.0229087174,0.0000000000,0.0000000000
0.0000010000,-0.0334439017,0.0000000000,0.0000000000
0.0000015000,-0.0402728543,0.0000000000,0.0000000000
0.0000020000,-0.0424708240,0.0000000000,0.0000000000
0.0000025000,-0.0396377705,0.0000000000,0.0000000000
0.0000030000,-0.0319611393,0.0000000000,0.0000000000
0.0000035000,-0.0202111267,0.0000000000,0.0000000000
0.0000040000,-0.0056668525,0.0000000000,0.0000000000
0.0000045000,0.0100198211,0.0000000000,0.0000000000
0.0000050000,0.0250086784,0.0000000000,0.0000000000
0.0000055000,0.0374835096,0.0000000000,0.0000000000
0.0000060000,0.0458682701,0.0000000000,0.0000000000
0.0000065000,0.0490220077,0.0000000000,0.0000000000
0.0000070000,0.0463882275,0.0000000000,0.0000000000
0.0000075000,0.0380809978,0.0000000000,0.0000000000
0.0000080000,0.0248939134,0.0000000000,0.0000000000
0.0000085000,0.0082305241,0.0000000000,0.0000000000
0.0000090000,-0.0100413021,0.0000000000,0.0000000000
0.0000095000,-0.0277930535,0.0000000000,0.0000000000
0.0000100000,-0.0428779796,0.0000000000,0.0000000000
0.0000105000,-0.0533853285,0.0000000000,0.0000000000
0.0000110000,-0.0578745194,0.0000000000,0.0000000000
0.0000115000,-0.0555643030,0.0000000000,0.0000000000
0.0000120000,-0.0464511029,0.0000000000,0.0000000000
0.0000125000,-0.0313410349,0.0000000000,0.0000000000
0.0000130000,-0.0117876017,0.0000000000,0.0000000000
0.0000135000,0.0100595448,0.0000000000,0.0000000000
0.0000140000,0.0316832848,0.0000000000,0.0000000000
0.0000145000,0.0504794717,0.0000000000,0.0000000000
0.0000150000,0.0640599653,0.0000000000,0.0000000000
0.0000155000,0.0705438629,0.0000000000,0.0000000000
0.0000160000,0.0688024312,0.0000000000,0.0000000000
0.0000165000,0.0586279966,0.0000000000,0.0000000000
0.0000170000,0.0408035591,0.0000000000,0.0000000000
0.0000175000,0.0170606859,0.0000000000,0.0000000000
0.0000180000,-0.0100744218,-0.0000000000,-0.0000000000
0.0000185000,-0.0375349671,-0.0000000000,-0.0000000000
0.0000190000,-0.0620422848,-0.0000000001,-0.0000000001
0.0000195000,-0.0804766864,-0.0000000012,-0.0000000012
0.0000200000,-0.0902505070,-0.0000000086,-0.0000000086
0.0000205000,-0.0896395743,-0.0000000482,-0.0000000482
0.0000210000,-0.0780358091,-0.0000002222,-0.0000002222
0.0000215000,-0.0560866892,-0.0000008659,-0.0000008659
0.0000220000,-0.0257013645,-0.0000029157,-0.0000029157
0.0000225000,0.0100860642,-0.0000086253,-0.0000086253
0.0000230000,0.0473880433,-0.0000227063,-0.0000227063
0.0000235000,0.0818468779,-0.0000537189,-0.0000537189
0.0000240000,0.1090967655,-0.0001150294,-0.0001150294
0.0000245000,0.1252558231,-0.0002239988,-0.0002239988
0.0000250000,0.1274006516,-0.0003976767,-0.0003976767
0.0000255000,0.1139688045,-0.0006438538,-0.0006438538
0.0000260000,0.0850444809,-0.0009484433,-0.0009484433
0.0000265000,0.0424907058,-0.0012635530,-0.0012635530
0.0000270000,-0.0100943409,-0.0015037773,-0.0015037773
0.0000275000,-0.0676022694,-0.0015587584,-0.0015587584
0.0000280000,-0.1238057613,-0.0013255898,-0.0013255898
0.0000285000,-0.1718885750,-0.0007546280,-0.0007546280
0.0000290000,-0.2050649226,0.0001096643,0.0001096643
0.0000295000,-0.2172335386,0.0011168454,0.0011168454
0.0000300000,-0.2036044747,0.0020429911,0.0020429911
0.0000305000,-0.1612349898,0.0026613707,0.0026613707
0.0000310000,-0.0894210562,0.0028227372,0.0028227372
0.0000315000,0.0100993235,0.0025069532,0.0025069532
0.0000320000,0.1331564784,0.0018164238,0.0018164238
0.0000325000,0.2733794451,0.0009099280,0.0009099280
0.0000330000,0.4226319790,-0.0000835924,-0.0000835924
0.0000335000,0.5716199279,-0.0011065978,-0.0011065978
0.0000340000,0.7106176019,-0.0021346738,-0.0021346738
0.0000345000,0.8302505612,-0.0030967484,-0.0030967484
0.0000350000,0.9222652912,-0.0038317153,-0.0038317153
0.0000355000,0.9802147746,-0.0041175480,-0.0041175480
0.0000360000,1.0000000000,-0.0037507168,-0.0037507168
0.0000365000,0.9802147746,-0.0026502367,-0.0026502367
0.0000370000,0.9222652912,-0.0009562932,-0.0009562932
0.0000375000,0.8302505612,0.0009668793,0.0009668793
0.0000380000,0.7106176019,0.0026995931,0.0026995931
0.0000385000,0.5716199279,0.0039892644,0.0039892644
0.0000390000,0.4226319790,0.0047862586,0.0047862586
0.0000395000,0.2733794451,0.0050814208,0.0050814208
0.0000400000,0.1331564784,0.0048242570,0.0048242570
0.0000405000,0.0100993235,0.0040363050,0.0040363050
0.0000410000,-0.0894210562,0.0028533000,0.0028533000
0.0000415000,-0.1612349898,0.0013586550,0.0013586550
0.0000420000,-0.2036044747,-0.0004625180,-0.0004625180
0.0000425000,-0.2172335386,-0.0024631340,-0.0024631340
0.0000430000,-0.2050649226,-0.0042190477,-0.0042190477
0.0000435000,-0.1718885750,-0.0053890790,-0.0053890790
0.0000440000,-0.1238057613,-0.0060035270,-0.0060035270
0.0000445000,-0.0676022694,-0.0061363969,-0.0061363969
0.0000450000,-0.0100943409,-0.0055297380,-0.0055297380
0.0000455000,0.0424907058,-0.0039428091,-0.0039428091
0.0000460000,0.0850444809,-0.0016944651,-0.0016944651
0.0000465000,0.1139688045,0.0006097718,0.0006097718
0.0000470000,0.1274006516,0.0027647666,0.0027647666
0.0000475000,0.1252558231,0.0048865750,0.0048865750
0.0000480000,0.1090967655,0.0067697922,0.0067697922
0.0000485000,0.0818468779,0.0078968294,0.0078968294
0.0000490000,0.0473880433,0.0080504855,0.0080504855
0.0000495000,0.0100860642,0.0073709404,0.0073709404
0.0000500000,-0.0257013645,0.0058472087,0.0058472087
0.0000505000,-0.0560866892,0.0033333187,0.0033333187
0.0000510000,-0.0780358091,0.0000837087,0.0000837087
0.0000515000,-0.0896395743,-0.0032665955,-0.0032665955
0.0000520000,-0.0902505070,-0.0062908158,-0.0062908158
0.0000525000,-0.0804766864,-0.0088922158,-0.0088922158
0.0000530000,-0.0620422848,-0.0108752660,-0.0108752660
0.0000535000,-0.0375349671,-0.0118404627,-0.0118404627
0.0000540000,-0.0100744218,-0.0114891436,-0.0114891436
0.0000545000,0.0170606859,-0.0097014448,-0.0097014448
0.0000550000,0.0408035591,-0.0064286129,-0.0064286129
0.0000555000,0.0586279966,-0.0018375758,-0.0018375758
0.0000560000,0.0688024312,0.0035633496,0.0035633496
0.0000565000,0.0705438629,0.0092276521,0.0092276521
0.0000570000,0.0640599653,0.0148860514,0.0148860514
0.0000575000,0.0504794717,0.0203670301,0.0203670301
0.0000580000,0.0316832848,0.0252504274,0.0252504274
0.0000585000,0.0100595448,0.0288934074,0.0288934074
0.0000590000,-0.0117876017,0.0307832193,0.0307832193
0.0000595000,-0.0313410349,0.0308389645,0.0308389645
0.0000600000,-0.0464511029,0.0293672197,0.0293672197
0.0000605000,-0.0555643030,0.0266621374,0.0266621374
0.0000610000,-0.0578745194,0.0227492955,0.0227492955
0.0000615000,-0.0533853285,0.0177313350,0.0177313350
0.0000620000,-0.0428779796,0.0122030731,0.0122030731
0.0000625000,-0.0277930535,0.0069329753,0.0069329753
0.0000630000,-0.0100413021,0.0022975756,0.0022975756
0.0000635000,0.0082305241,-0.0015422867,-0.0015422867
0.0000640000,0.0248939134,-0.0041749887,-0.0041749887
0.0000645000,0.0380809978,-0.0052047297,-0.0052047297
0.0000650000,0.0463882275,-0.0047510727,-0.0047510727
0.0000655000,0.0490220077,-0.0031778063,-0.0031778063
0.0000660000,0.0458682701,-0.0006144622,-0.0006144622
0.0000665000,0.0374835096,0.0028069480,0.0028069480
0.0000670000,0.0250086784,0.0065955631,0.0065955631
0.0000675000,0.0100198211,0.0101591479,0.0101591479
0.0000680000,-0.0056668525,0.0130653409,0.0130653409
0.0000685000,-0.0202111267,0.0148910154,0.0148910154
0.0000690000,-0.0319611393,0.0153078949,0.0153078949
0.0000695000,-0.0396377705,0.0143839028,0.0143839028
0.0000700000,-0.0424708240,0.0122994781,0.0122994781
0.0000705000,-0.0402728543,0.0089029679,0.0089029679
0.0000710000,-0.0334439017,0.0041244803,0.0041244803
0.0000714999,-0.0229087174,-0.0014371648,-0.0014371648
0.0000719999,-0.0099949827,-0.0069517191,-0.0069517191
0.0000724999,0.0037304156,-0.0120604876,-0.0120604876
0.0000729999,0.0000000000,-0.0166408643,-0.0166408643
0.0000734999,0.0000000000,-0.0203230176,-0.0203230176
0.0000739999,0.0000000000,-0.0227036923,-0.0227036923
0.0000744999,0.0000000000,-0.0236179959,-0.0236179959
0.0000749999,0.0000000000,-0.0229679756,-0.0229679756
0.0000754999,0.0000000000,-0.0207814518,-0.0207814518
0.0000759999,0.0000000000,-0.0174938384,-0.0174938384
0.0000764999,0.0000000000,-0.0136418641,-0.0136418641
0.0000769999,0.0000000000,-0.0093932860,-0.0093932860
0.0000774999,0.0000000000,-0.0048758374,-0.0048758374
0.0000779999,0.0000000000,-0.0006446941,-0.0006446941
0.0000784999,0.0000000000,0.0027049279,0.0027049279
0.0000789999,0.0000000000,0.0050210096,0.0050210096
0.0000794999,0.0000000000,0.0063143759,0.0063143759
0.0000799999,0.0000000000,0.0064804708,0.0064804708
0.0000804999,0.0000000000,0.0055754096,0.0055754096
0.0000809999,0.0000000000,0.0038779723,0.0038779723
0.0000814999,0.0000000000,0.0015720439,0.0015720439
0.0000819999,0.0000000000,-0.0011689055,-0.0011689055
0.0000824999,0.0000000000,-0.0038963612,-0.0038963612
0.0000829999,0.0000000000,-0.0061658164,-0.0061658164
0.0000834999,0.0000000000,-0.0078790523,-0.0078790523
0.0000839999,0.0000000000,-0.0089894840,-0.0089894840
0.0000844999,0.0000000000,-0.0092615057,-0.0092615057
0.0000849999,0.0000000000,-0.0086250771,-0.0086250771
0.0000854999,0.0000000000,-0.0073269093,-0.0073269093
0.0000859998,0.0000000000,-0.0055608950,-0.0055608950
0.0000864998,0.0000000000,-0.0034051705,-0.0034051705
0.0000869998,0.0000000000,-0.0011291357,-0.0011291357
0.0000874998,0.0000000000,0.0009038802,0.0009038802
0.0000879998,0.0000000000,0.0025421330,0.0025421330
0.0000884998,0.0000000000,0.0037012631,0.0037012631
0.0000889998,0.0000000000,0.0041856561,0.0041856561
0.0000894998,0.0000000000,0.0039448291,0.0039448291
0.0000899998,0.0000000000,0.0031683063,0.0031683063
0.0000904998,0.0000000000,0.0019665835,0.0019665835
0.0000909998,0.0000000000,0.0003509393,0.0003509393
0.0000914998,0.0000000000,-0.0014502649,-0.0014502649
0.0000919998,0.0000000000,-0.0030799937,-0.0030799937
0.0000924998,0.0000000000,-0.0043892683,-0.0043892683
0.0000929998,0.0000000000,-0.0053430256,-0.0053430256
0.0000934998,0.0000000000,-0.0057990216,-0.0057990216
0.0000939998,0.0000000000,-0.0056718928,-0.0056718928
0.0000944998,0.0000000000,-0.0050565517,-0.0050565517
0.0000949998,0.0000000000,-0.0040270276,-0.0040270276
0.0000954998,0.0000000000,-0.0026257113,-0.0026257113
0.0000959998,0.0000000000,-0.0010815832,-0.0010815832
0.0000964998,0.0000000000,0.0003049349,0.0003049349
0.0000969998,0.0000000000,0.0014315855,0.0014315855
0.0000974998,0.0000000000,0.0022622237,0.0022622237
0.0000979998,0.0000000000,0.0026212975,0.0026212975
0.0000984998,0.0000000000,0.0023840065,0.0023840065
0.0000989998,0.0000000000,0.0016477501,0.0016477501
0.0000994998,0.0000000000,0.0005695500,0.0005695500
0.0000999998,0.0000000000,-0.0006988558,-0.0006988558
0.0001004997,0.0000000000,-0.0018854754,-0.0018854754
0.0001009997,0.0000000000,-0.0027108053,-0.0027108053
0.0001014997,0.0000000000,-0.0031060672,-0.0031060672
0.0001019997,0.0000000000,-0.0031166086,-0.0031166086
0.0001024997,0.0000000000,-0.0027591821,-0.0027591821
0.0001029997,0.0000000000,-0.0021539025,-0.0021539025
0.0001034997,0.0000000000,-0.0015539452,-0.0015539452
0.0001039997,0.0000000000,-0.0010903464,-0.0010903464
0.0001044997,0.0000000000,-0.0006959361,-0.0006959361
0.0001049997,0.0000000000,-0.0003074399,-0.0003074399
0.0001054997,0.0000000000,0.0000677170,0.0000677170
0.0001059997,0.0000000000,0.0004082102,0.0004082102
0.0001064997,0.0000000000,0.0006065703,0.0006065703
0.0001069997,0.0000000000,0.0004847507,0.0004847507
0.0001074997,0.0000000000,0.0000349335,0.0000349335
0.0001079997,0.0000000000,-0.0005173815,-0.0005173815
0.0001084997,0.0000000000,-0.0009398617,-0.0009398617
0.0001089997,0.0000000000,-0.0010973312,-0.0010973312
0.0001094997,0.0000000000,-0.0009109795,-0.0009109795
0.0001099997,0.0000000000,-0.0004783377,-0.0004783377
0.0001104997,0.0000000000,-0.0001283896,-0.0001283896
0.0001109997,0.0000000000,-0.0000993673,-0.0000993673
0.0001114997,0.0000000000,-0.0002778579,-0.0002778579
0.0001119997,0.0000000000,-0.0004388974,-0.0004388974
0.0001124997,0.0000000000,-0.0005484381,-0.0005484381
0.0001129997,0.0000000000,-0.0006424948,-0.0006424948
0.0001134997,0.0000000000,-0.0006278658,-0.0006278658
0.0001139997,0.0000000000,-0.0004407113,-0.0004407113
0.0001144996,0.0000000000,-0.0002589871,-0.0002589871
0.0001149996,0.0000000000,-0.0003034493,-0.0003034493
0.0001154996,0.0000000000,-0.0004769007,-0.0004769007
0.0001159996,0.0000000000,-0.0004763599,-0.0004763599
0.0001164996,0.0000000000,-0.0003056773,-0.0003056773
0.0001169996,0.0000000000,-0.0003226965,-0.0003226965
0.0001174996,0.0000000000,-0.0005954345,-0.0005954345
0.0001179996,0.0000000000,-0.0006624986,-0.0006624986
0.0001184996,0.0000000000,-0.0003022994,-0.0003022994
0.0001189996,0.0000000000,-0.0000275242,-0.0000275242
0.0001194996,0.0000000000,-0.0002704491,-0.0002704491
0.0001199996,0.0000000000,-0.0006207950,-0.0006207950
0.0001204996,0.0000000000,-0.0005451016,-0.0005451016
0.0001209996,0.0000000000,-0.0002914710,-0.0002914710
0.0001214996,0.0000000000,-0.0003212272,-0.0003212272
0.0001219996,0.0000000000,-0.0004367320,-0.0004367320
0.0001224996,0.0000000000,-0.0002857440,-0.0002857440
0.0001229996,0.0000000000,-0.0001394457,-0.0001394457
0.0001234996,0.0000000000,-0.0003524908,-0.0003524908
0.0001239996,0.0000000000,-0.0006140766,-0.0006140766
0.0001244996,0.0000000000,-0.0004926811,-0.0004926811
0.0001249996,0.0000000000,-0.0001932465,-0.0001932465
0.0001254996,0.0000000000,-0.0001300080,-0.0001300080
0.0001259996,0.0000000000,-0.0002635914,-0.0002635914
0.0001264996,0.0000000000,-0.0003691730,-0.0003691730
0.0001269996,0.0000000000,-0.0004456577,-0.0004456577
0.0001274996,0.0000000000,-0.0004807420,-0.0004807420
0.0001279996,0.0000000000,-0.0003260229,-0.0003260229
0.0001284996,0.0000000000,-0.0000760171,-0.0000760171
0.0001289996,0.0000000000,-0.0000780085,-0.0000780085
0.0001294996,0.0000000000,-0.0003790602,-0.0003790602
0.0001299997,0.0000000000,-0.0005955616,-0.0005955616
0.0001304997,0.0000000000,-0.0004516463,-0.0004516463
0.0001309997,0.0000000000,-0.0001241232,-0.0001241232
0.0001314997,0.0000000000,0.0000062927,0.0000062927
0.0001319997,0.0000000000,-0.0002151704,-0.0002151704
0.0001324997,0.0000000000,-0.0005225207,-0.0005225207
0.0001329997,0.0000000000,-0.0005042976,-0.0005042976
0.0001334997,0.0000000000,-0.0001795273,-0.0001795273
0.0001339997,0.0000000000,-0.0000336353,-0.0000336353
0.0001344997,0.0000000000,-0.0002560525,-0.0002560525
0.0001349997,0.0000000000,-0.0004191078,-0.0004191078
0.0001354997,0.0000000000,-0.0002640705,-0.0002640705
0.0001359997,0.0000000000,-0.0001577436,-0.0001577436
0.0001364997,0.0000000000,-0.0003223400,-0.0003223400
0.0001369997,0.0000000000,-0.0003816209,-0.0003816209
0.0001374997,0.0000000000,-0.0001550461,-0.0001550461
0.0001379997,0.0000000000,-0.0000595196,-0.0000595196
0.0001384997,0.0000000000,-0.0002809975,-0.0002809975
0.0001389997,0.0000000000,-0.0004234274,-0.0004234274
0.0001394997,0.0000000000,-0.0002957839,-0.0002957839
0.0001399997,0.0000000000,-0.0001711190,-0.0001711190
0.0001404997,0.0000000000,-0.0001519902,-0.0001519902
0.0001409997,0.0000000000,-0.0001291197,-0.0001291197
0.0001414997,0.0000000000,-0.0002198123,-0.0002198123
0.0001419997,0.0000000000,-0.0004431847,-0.0004431847
0.0001424997,0.0000000000,-0.0004012370,-0.0004012370
0.0001429998,0.0000000000,-0.0000242050,-0.0000242050
0.0001434998,0.0000000000,0.0000858492,0.0000858492
0.0001439998,0.0000000000,-0.0002893683,-0.0002893683
0.0001444998,0.0000000000,-0.0005249161,-0.0005249161
0.0001449998,0.0000000000,-0.0002826146,-0.0002826146
0.0001454998,0.0000000000,-0.0000333661,-0.0000333661
0.0001459998,0.0000000000,-0.0000888382,-0.0000888382
0.0001464998,0.0000000000,-0.0002018818,-0.0002018818
0.0001469998,0.0000000000,-0.0002580883,-0.0002580883
0.0001474998,0.0000000000,-0.0003427541,-0.0003427541
0.0001479998,0.0000000000,-0.0002860116,-0.0002860116
0.0001484998,0.0000000000,-0.0000349462,-0.0000349462
0.0001489998,0.0000000000,0.0000009551,0.0000009551
0.0001494998,0.0000000000,-0.0002968377,-0.0002968377
0.0001499998,0.0000000000,-0.0004179479,-0.0004179479
0.0001504998,0.0000000000,-0.0001744040,-0.0001744040
0.0001509998,0.0000000000,-0.0000319009,-0.0000319009
0.0001514998,0.0000000000,-0.0001676908,-0.0001676908
0.0001519998,0.0000000000,-0.0002399547,-0.0002399547
0.0001524998,0.0000000000,-0.0001817618,-0.0001817618
0.0001529998,0.0000000000,-0.0002140559,-0.0002140559
0.0001534998,0.0000000000,-0.0002411224,-0.0002411224
0.0001539998,0.0000000000,-0.0001160572,-0.0001160572
0.0001544998,0.0000000000,-0.0000775085,-0.0000775085
0.0001549998,0.0000000000,-0.0002354171,-0.0002354171
0.0001554998,0.0000000000,-0.0002755049,-0.0002755049
0.0001559998,0.0000000000,-0.0001254173,-0.0001254173
0.0001564999,0.0000000000,-0.0001061263,-0.0001061263
0.0001569999,0.0000000000,-0.0002254031,-0.0002254031
0.0001574999,0.0000000000,-0.0001949143,-0.0001949143
0.0001579999,0.0000000000,-0.0000921771,-0.0000921771
0.0001584999,0.0000000000,-0.0001622998,-0.0001622998
0.0001589999,0.0000000000,-0.0002517066,-0.0002517066
0.0001594999,0.0000000000,-0.0001628622,-0.0001628622
0.0001599999,0.0000000000,-0.0000894599,-0.0000894599
0.0001604999,0.0000000000,-0.0001642292,-0.0001642292
0.0001609999,0.0000000000,-0.0001920100,-0.0001920100
0.0001614999,0.0000000000,-0.0001328604,-0.0001328604
0.0001619999,0.0000000000,-0.0001649504,-0.0001649504
0.0001624999,0.0000000000,-0.0002176001,-0.0002176001
0.0001629999,0.0000000000,-0.0001246708,-0.0001246708
0.0001634999,0.0000000000,-0.0000541439,-0.0000541439
0.0001639999,0.0000000000,-0.0001708605,-0.0001708605
0.0001644999,0.0000000000,-0.0002563721,-0.0002563721
0.0001649999,0.0000000000,-0.0001533666,-0.0001533666
0.0001654999,0.0000000000,-0.0000707447,-0.0000707447
0.0001659999,0.0000000000,-0.0001266118,-0.0001266118
0.0001664999,0.0000000000,-0.0001649791,-0.0001649791
0.0001669999,0.0000000000,-0.0001502325,-0.0001502325
0.0001674999,0.0000000000,-0.0001778722,-0.0001778722
0.0001679999,0.0000000000,-0.0001733845,-0.0001733845
0.0001684999,0.0000000000,-0.0000775017,-0.0000775017
0.0001689999,0.0000000000,-0.0000650499,-0.0000650499
0.0001695000,0.0000000000,-0.0001917318,-0.0001917318
0.0001700000,0.0000000000,-0.0002307095,-0.0002307095
0.0001705000,0.0000000000,-0.0001152393,-0.0001152393
0.0001710000,0.0000000000,-0.0000585242,-0.0000585242
0.0001715000,0.0000000000,-0.0001228595,-0.0001228595
0.0001720000,0.0000000000,-0.0001611385,-0.0001611385
0.0001725000,0.0000000000,-0.0001515650,-0.0001515650
0.0001730000,0.0000000000,-0.0001577595,-0.0001577595
0.0001735000,0.0000000000,-0.0001284372,-0.0001284372
0.0001740000,0.0000000000,-0.0000642319,-0.0000642319
0.0001745000,0.0000000000,-0.0000957425,-0.0000957425
0.0001750000,0.0000000000,-0.0001962759,-0.0001962759
0.0001755000,0.0000000000,-0.0001838254,-0.0001838254
0.0001760000,0.0000000000,-0.0000788210,-0.0000788210
0.0001765000,0.0000000000,-0.0000639349,-0.0000639349
0.0001770000,0.0000000000,-0.0001341195,-0.0001341195
0.0001775000,0.0000000000,-0.0001564586,-0.0001564586
0.0001780000,0.0000000000,-0.0001358535,-0.0001358535
0.0001785000,0.0000000000,-0.0001272028,-0.0001272028
0.0001790000,0.0000000000,-0.0000997469,-0.0000997469
0.0001795000,0.0000000000,-0.0000732664,-0.0000732664
0.0001800000,0.0000000000,-0.0001221579,-0.0001221579
0.0001805000,0.0000000000,-0.0001805600,-0.0001805600
0.0001810000,0.0000000000,-0.0001341834,-0.0001341834
0.0001815000,0.0000000000,-0.0000581774,-0.0000581774
0.0001820000,0.0000000000,-0.0000806301,-0.0000806301
0.0001825001,0.0000000000,-0.0001439623,-0.0001439623
0.0001830001,0.0000000000,-0.0001434954,-0.0001434954
0.0001835001,0.0000000000,-0.0001126213,-0.0001126213
0.0001840001,0.0000000000,-0.0001011569,-0.0001011569
0.0001845001,0.0000000000,-0.0000877081,-0.0000877081
0.0001850001,0.0000000000,-0.0000890803,-0.0000890803
