time[s],Transmitted signal[dBSPL],Received signal1[dBSPL],Received signal2[dB],center[dB]
0.0000000000,-0.0099949827,0.0000000000,0.0000000000
0.0000005000,-0.0229087174,0.0000000000,0.0000000000
0.0000010000,-0.0334439017,0.0000000000,0.0000000000
0.0000015000,-0.0402728543,0.0000000000,0.0000000000
0.0000020000,-0.0424708240,0.0000000000,0.0000000000
0.0000025000,-0.0396377705,0.0000000000,0.0000000000
0.0000030000,-0.0319611393,0.0000000000,0.0000000000
0.0000035000,-0.0202111267,0.0000000000,0.0000000000
0.0000040000,-0.0056668525,0.0000000000,0.0000000000
0.0000045000,0.0100198211,0.0000000000,0.0000000000
0.0000050000,0.0250086784,0.0000000000,0.0000000000
0.0000055000,0.0374835096,0.0000000000,0.0000000000
0.0000060000,0.0458682701,0.0000000000,0.0000000000
0.0000065000,0.0490220077,0.0000000000,0.0000000000
0.0000070000,0.0463882275,0.0000000000,0.0000000000
0.0000075000,0.0380809978,0.0000000000,0.0000000000
0.0000080000,0.0248939134,0.0000000000,0.0000000000
0.0000085000,0.0082305241,0.0000000000,0.0000000000
0.0000090000,-0.0100413021,0.0000000000,0.0000000000
0.0000095000,-0.0277930535,0.0000000000,0.0000000000
0.0000100000,-0.0428779796,0.0000000000,0.0000000000
0.0000105000,-0.0533853285,0.0000000000,0.0000000000
0.0000110000,-0.0578745194,0.0000000000,0.0000000000
0.0000115000,-0.0555643030,0.0000000000,0.0000000000
0.0000120000,-0.0464511029,0.0000000000,0.0000000000
0.0000125000,-0.0313410349,0.0000000000,0.0000000000
0.0000130000,-0.0117876017,0.0000000000,0.0000000000
0.0000135000,0.0100595448,0.0000000000,0.0000000000
0.0000140000,0.0316832848,0.0000000000,0.0000000000
0.0000145000,0.0504794717,0.0000000000,0.0000000000
0.0000150000,0.0640599653,0.0000000000,0.0000000000
0.0000155000,0.0705438629,0.0000000000,0.0000000000
0.0000160000,0.0688024312,0.0000000000,0.0000000000
0.0000165000,0.0586279966,0.0000000000,0.0000000000
0.0000170000,0.0408035591,0.0000000000,0.0000000000
0.0000175000,0.0170606859,0.0000000000,0.0000000000
0.0000180000,-0.0100744218,0.0000000000,0.0000000000
0.0000185000,-0.0375349671,0.0000000000,0.0000000000
0.0000190000,-0.0620422848,0.0000000000,0.0000000000
0.0000195000,-0.0804766864,0.0000000000,0.0000000000
0.0000200000,-0.0902505070,0.0000000000,0.0000000000
0.0000205000,-0.0896395743,-0.0000000000,-0.0000000000
0.0000210000,-0.0780358091,-0.0000000001,-0.0000000001
0.0000215000,-0.0560866892,-0.0000000012,-0.0000000012
0.0000220000,-0.0257013645,-0.0000000130,-0.0000000130
0.0000225000,0.0100860642,-0.0000001018,-0.0000001018
0.0000230000,0.0473880433,-0.0000006204,-0.0000006204
0.0000235000,0.0818468779,-0.0000030471,-0.0000030471
0.0000240000,0.1090967655,-0.0000123605,-0.0000123605
0.0000245000,0.1252558231,-0.0000420941,-0.0000420941
0.0000250000,0.1274006516,-0.0001216087,-0.0001216087
0.0000255000,0.1139688045,-0.0002997281,-0.0002997281
0.0000260000,0.0850444809,-0.0006309850,-0.0006309850
0.0000265000,0.0424907058,-0.0011300963,-0.0011300963
0.0000270000,-0.0100943409,-0.0017026830,-0.0017026830
0.0000275000,-0.0676022694,-0.0021064698,-0.0021064698
0.0000280000,-0.1238057613,-0.0020256597,-0.0020256597
0.0000285000,-0.1718885750,-0.0012820277,-0.0012820277
0.0000290000,-0.2050649226,-0.0000509202,-0.0000509202
0.0000295000,-0.2172335386,0.0011597931,0.0011597931
0.0000300000,-0.2036044747,0.0018688408,0.0018688408
0.0000305000,-0.1612349898,0.0020456261,0.0020456261
0.0000310000,-0.0894210562,0.0021167803,0.0021167803
0.0000315000,0.0100993235,0.0024315021,0.0024315021
0.0000320000,0.1331564784,0.0027443180,0.0027443180
0.0000325000,0.2733794451,0.0024108908,0.0024108908
0.0000330000,0.4226319790,0.0011744018,0.0011744018
0.0000335000,0.5716199279,-0.0004400577,-0.0004400577
0.0000340000,0.7106176019,-0.0017203981,-0.0017203981
0.0000345000,0.8302505612,-0.0026002123,-0.0026002123
0.0000350000,0.9222652912,-0.0035355925,-0.0035355925
0.0000355000,0.9802147746,-0.0045506032,-0.0045506032
0.0000360000,1.0000000000,-0.0048750979,-0.0048750979
0.0000365000,0.9802147746,-0.0038366995,-0.0038366995
0.0000370000,0.9222652912,-0.0018069877,-0.0018069877
0.0000375000,0.8302505612,0.0001582557,0.0001582557
0.0000380000,0.7106176019,0.0014860696,0.0014860696
0.0000385000,0.5716199279,0.0024849877,0.0024849877
0.0000390000,0.4226319790,0.0036321613,0.0036321613
0.0000395000,0.2733794451,0.0048794593,0.0048794593
0.0000400000,0.1331564784,0.0057241404,0.0057241404
0.0000405000,0.0100993235,0.0056476677,0.0056476677
0.0000410000,-0.0894210562,0.0044637434,0.0044637434
0.0000415000,-0.1612349898,0.0025375502,0.0025375502
0.0000420000,-0.2036044747,0.0006201142,0.0006201142
0.0000425000,-0.2172335386,-0.0008855376,-0.0008855376
0.0000430000,-0.2050649226,-0.0023861681,-0.0023861681
0.0000435000,-0.1718885750,-0.0043602278,-0.0043602278
0.0000440000,-0.1238057613,-0.0062994100,-0.0062994100
0.0000445000,-0.0676022694,-0.0070724180,-0.0070724180
0.0000450000,-0.0100943409,-0.0063652257,-0.0063652257
0.0000455000,0.0424907058,-0.0049997470,-0.0049997470
0.0000460000,0.0850444809,-0.0036430119,-0.0036430119
0.0000465000,0.1139688045,-0.0019792418,-0.0019792418
0.0000470000,0.1274006516,0.0004715738,0.0004715738
0.0000475000,0.1252558231,0.0033822660,0.0033822660
0.0000480000,0.1090967655,0.0059367889,0.0059367889
0.0000485000,0.0818468779,0.0076510580,0.0076510580
0.0000490000,0.0473880433,0.0084727630,0.0084727630
0.0000495000,0.0100860642,0.0084327143,0.0084327143
0.0000500000,-0.0257013645,0.0075497301,0.0075497301
0.0000505000,-0.0560866892,0.0058483058,0.0058483058
0.0000510000,-0.0780358091,0.0032862697,0.0032862697
0.0000515000,-0.0896395743,-0.0000992555,-0.0000992555
0.0000520000,-0.0902505070,-0.0038874343,-0.0038874343
0.0000525000,-0.0804766864,-0.0073763561,-0.0073763561
0.0000530000,-0.0620422848,-0.0100639649,-0.0100639649
0.0000535000,-0.0375349671,-0.0118284328,-0.0118284328
0.0000540000,-0.0100744218,-0.0126256486,-0.0126256486
0.0000545000,0.0170606859,-0.0122130578,-0.0122130578
0.0000550000,0.0408035591,-0.0102427779,-0.0102427779
0.0000555000,0.0586279966,-0.0065890355,-0.0065890355
0.0000560000,0.0688024312,-0.0015825774,-0.0015825774
0.0000565000,0.0705438629,0.0041455026,0.0041455026
0.0000570000,0.0640599653,0.0101101436,0.0101101436
0.0000575000,0.0504794717,0.0161134005,0.0161134005
0.0000580000,0.0316832848,0.0218648650,0.0218648650
0.0000585000,0.0100595448,0.0267457850,0.0267457850
0.0000590000,-0.0117876017,0.0301441345,0.0301441345
0.0000595000,-0.0313410349,0.0317870937,0.0317870937
0.0000600000,-0.0464511029,0.0316335484,0.0316335484
0.0000605000,-0.0555643030,0.0297547448,0.0297547448
0.0000610000,-0.0578745194,0.0264082476,0.0264082476
0.0000615000,-0.0533853285,0.0219129380,0.0219129380
0.0000620000,-0.0428779796,0.0164702870,0.0164702870
0.0000625000,-0.0277930535,0.0104411785,0.0104411785
0.0000630000,-0.0100413021,0.0046140915,0.0046140915
0.0000635000,0.0082305241,-0.0002484438,-0.0002484438
0.0000640000,0.0248939134,-0.0039246986,-0.0039246986
0.0000645000,0.0380809978,-0.0064093452,-0.0064093452
0.0000650000,0.0463882275,-0.0074370620,-0.0074370620
0.0000655000,0.0490220077,-0.0067678201,-0.0067678201
0.0000660000,0.0458682701,-0.0045815906,-0.0045815906
0.0000665000,0.0374835096,-0.0012509474,-0.0012509474
0.0000670000,0.0250086784,0.0028652111,0.0028652111
0.0000675000,0.0100198211,0.0072127776,0.0072127776
0.0000680000,-0.0056668525,0.0111464150,0.0111464150
0.0000685000,-0.0202111267,0.0143524902,0.0143524902
0.0000690000,-0.0319611393,0.0166791677,0.0166791677
0.0000695000,-0.0396377705,0.0176644847,0.0176644847
0.0000700000,-0.0424708240,0.0168350749,0.0168350749
0.0000705000,-0.0402728543,0.0142977489,0.0142977489
0.0000710000,-0.0334439017,0.0104919374,0.0104919374
0.0000714999,-0.0229087174,0.0056579006,0.0056579006
0.0000719999,-0.0099949827,0.0000238162,0.0000238162
0.0000724999,0.0037304156,-0.0058952570,-0.0058952570
0.0000729999,0.0000000000,-0.0115835369,-0.0115835369
0.0000734999,0.0000000000,-0.0166817624,-0.0166817624
0.0000739999,0.0000000000,-0.0206974000,-0.0206974000
0.0000744999,0.0000000000,-0.0231292080,-0.0231292080
0.0000749999,0.0000000000,-0.0239490904,-0.0239490904
0.0000754999,0.0000000000,-0.0234134849,-0.0234134849
0.0000759999,0.0000000000,-0.0215269979,-0.0215269979
0.0000764999,0.0000000000,-0.0182579570,-0.0182579570
0.0000769999,0.0000000000,-0.0140232481,-0.0140232481
0.0000774999,0.0000000000,-0.0094302418,-0.0094302418
0.0000779999,0.0000000000,-0.0048592794,-0.0048592794
0.0000784999,0.0000000000,-0.0006522532,-0.0006522532
0.0000789999,0.0000000000,0.0027575141,0.0027575141
0.0000794999,0.0000000000,0.0051642312,0.0051642312
0.0000799999,0.0000000000,0.0065714293,0.0065714293
0.0000804999,0.0000000000,0.0068250485,0.0068250485
0.0000809999,0.0000000000,0.0057966583,0.0057966583
0.0000814999,0.0000000000,0.0038143741,0.0038143741
0.0000819999,0.0000000000,0.0013885554,0.0013885554
0.0000824999,0.0000000000,-0.0012610417,-0.0012610417
0.0000829999,0.0000000000,-0.0039888141,-0.0039888141
0.0000834999,0.0000000000,-0.0064210021,-0.0064210021
0.0000839999,0.0000000000,-0.0082266564,-0.0082266564
0.0000844999,0.0000000000,-0.0092974370,-0.0092974370
0.0000849999,0.0000000000,-0.0095091872,-0.0095091872
0.0000854999,0.0000000000,-0.0087716253,-0.0087716253
0.0000859998,0.0000000000,-0.0073179929,-0.0073179929
0.0000864998,0.0000000000,-0.0054851137,-0.0054851137
0.0000869998,0.0000000000,-0.0033521773,-0.0033521773
0.0000874998,0.0000000000,-0.0009965335,-0.0009965335
0.0000879998,0.0000000000,0.0012013682,0.0012013682
0.0000884998,0.0000000000,0.0028731083,0.0028731083
0.0000889998,0.0000000000,0.0039387443,0.0039387443
0.0000894998,0.0000000000,0.0043699476,0.0043699476
0.0000899998,0.0000000000,0.0040950086,0.0040950086
0.0000904998,0.0000000000,0.0032181279,0.0032181279
0.0000909998,0.0000000000,0.0019320230,0.0019320230
0.0000914998,0.0000000000,0.0002875493,0.0002875493
0.0000919998,0.0000000000,-0.0015994335,-0.0015994335
0.0000924998,0.0000000000,-0.0033522195,-0.0033522195
0.0000929998,0.0000000000,-0.0046653841,-0.0046653841
0.0000934998,0.0000000000,-0.0055342466,-0.0055342466
0.0000939998,0.0000000000,-0.0059638587,-0.0059638587
0.0000944998,0.0000000000,-0.0058293911,-0.0058293911
0.0000949998,0.0000000000,-0.0051262029,-0.0051262029
0.0000954998,0.0000000000,-0.0039963913,-0.0039963913
0.0000959998,0.0000000000,-0.0025388086,-0.0025388086
0.0000964998,0.0000000000,-0.0009041904,-0.0009041904
0.0000969998,0.0000000000,0.0005971085,0.0005971085
0.0000974998,0.0000000000,0.0017484640,0.0017484640
0.0000979998,0.0000000000,0.0025374074,0.0025374074
0.0000984998,0.0000000000,0.0028658644,0.0028658644
0.0000989998,0.0000000000,0.0025034980,0.0025034980
0.0000994998,0.0000000000,0.0014433982,0.0014433982
0.0000999998,0.0000000000,0.0000114361,0.0000114361
0.0001004997,0.0000000000,-0.0013585151,-0.0013585151
0.0001009997,0.0000000000,-0.0022563061,-0.0022563061
0.0001014997,0.0000000000,-0.0024602481,-0.0024602481
0.0001019997,0.0000000000,-0.0022451212,-0.0022451212
0.0001024997,0.0000000000,-0.0022258549,-0.0022258549
0.0001029997,0.0000000000,-0.0026195338,-0.0026195338
0.0001034997,0.0000000000,-0.0029124927,-0.0029124927
0.0001039997,0.0000000000,-0.0024587444,-0.0024587444
0.0001044997,0.0000000000,-0.0012515974,-0.0012515974
0.0001049997,0.0000000000,-0.0000147976,-0.0000147976
0.0001054997,0.0000000000,0.0004653158,0.0004653158
0.0001059997,0.0000000000,0.0001839423,0.0001839423
0.0001064997,0.0000000000,-0.0000540390,-0.0000540390
0.0001069997,0.0000000000,0.0002584000,0.0002584000
0.0001074997,0.0000000000,0.0005125285,0.0005125285
0.0001079997,0.0000000000,-0.0001077328,-0.0001077328
0.0001084997,0.0000000000,-0.0011924561,-0.0011924561
0.0001089997,0.0000000000,-0.0014765249,-0.0014765249
0.0001094997,0.0000000000,-0.0006070237,-0.0006070237
0.0001099997,0.0000000000,0.0003433417,0.0003433417
0.0001104997,0.0000000000,0.0003115111,0.0003115111
0.0001109997,0.0000000000,-0.0005062975,-0.0005062975
0.0001114997,0.0000000000,-0.0011204651,-0.0011204651
0.0001119997,0.0000000000,-0.0009662416,-0.0009662416
0.0001124997,0.0000000000,-0.0003312538,-0.0003312538
0.0001129997,0.0000000000,0.0001295835,0.0001295835
0.0001134997,0.0000000000,-0.0000067525,-0.0000067525
0.0001139997,0.0000000000,-0.0006260396,-0.0006260396
0.0001144996,0.0000000000,-0.0010918452,-0.0010918452
0.0001149996,0.0000000000,-0.0007856770,-0.0007856770
0.0001154996,0.0000000000,0.0000434245,0.0000434245
0.0001159996,0.0000000000,0.0003230853,0.0003230853
0.0001164996,0.0000000000,-0.0004267766,-0.0004267766
0.0001169996,0.0000000000,-0.0011977344,-0.0011977344
0.0001174996,0.0000000000,-0.0008504735,-0.0008504735
0.0001179996,0.0000000000,0.0001112525,0.0001112525
0.0001184996,0.0000000000,0.0002805497,0.0002805497
0.0001189996,0.0000000000,-0.0004847220,-0.0004847220
0.0001194996,0.0000000000,-0.0009829255,-0.0009829255
0.0001199996,0.0000000000,-0.0006185089,-0.0006185089
0.0001204996,0.0000000000,-0.0000809741,-0.0000809741
0.0001209996,0.0000000000,-0.0000371631,-0.0000371631
0.0001214996,0.0000000000,-0.0003245251,-0.0003245251
0.0001219996,0.0000000000,-0.0005538906,-0.0005538906
0.0001224996,0.0000000000,-0.0005954797,-0.0005954797
0.0001229996,0.0000000000,-0.0004207497,-0.0004207497
0.0001234996,0.0000000000,-0.0001347217,-0.0001347217
0.0001239996,0.0000000000,-0.0000726717,-0.0000726717
0.0001244996,0.0000000000,-0.0003671672,-0.0003671672
0.0001249996,0.0000000000,-0.0006410455,-0.0006410455
0.0001254996,0.0000000000,-0.0005197044,-0.0005197044
0.0001259996,0.0000000000,-0.0001709145,-0.0001709145
0.0001264996,0.0000000000,-0.0000324526,-0.0000324526
0.0001269996,0.0000000000,-0.0002451994,-0.0002451994
0.0001274996,0.0000000000,-0.0005448225,-0.0005448225
0.0001279996,0.0000000000,-0.0005713408,-0.0005713408
0.0001284996,0.0000000000,-0.0002666469,-0.0002666469
0.0001289996,0.0000000000,-0.0000055960,-0.0000055960
0.0001294996,0.0000000000,-0.0001482508,-0.0001482508
0.0001299997,0.0000000000,-0.0004917624,-0.0004917624
0.0001304997,0.0000000000,-0.0005425094,-0.0005425094
0.0001309997,0.0000000000,-0.0002714671,-0.0002714671
0.0001314997,0.0000000000,-0.0000927441,-0.0000927441
0.0001319997,0.0000000000,-0.0001730045,-0.0001730045
0.0001324997,0.0000000000,-0.0003161095,-0.0003161095
0.0001329997,0.0000000000,-0.0004021269,-0.0004021269
0.0001334997,0.0000000000,-0.0004116533,-0.0004116533
0.0001339997,0.0000000000,-0.0002545933,-0.0002545933
0.0001344997,0.0000000000,-0.0000425001,-0.0000425001
0.0001349997,0.0000000000,-0.0001261550,-0.0001261550
0.0001354997,0.0000000000,-0.0004584845,-0.0004584845
0.0001359997,0.0000000000,-0.0005113624,-0.0005113624
0.0001364997,0.0000000000,-0.0001773524,-0.0001773524
0.0001369997,0.0000000000,-0.0000000362,-0.0000000362
0.0001374997,0.0000000000,-0.0002112055,-0.0002112055
0.0001379997,0.0000000000,-0.0003975232,-0.0003975232
0.0001384997,0.0000000000,-0.0003327204,-0.0003327204
0.0001389997,0.0000000000,-0.0002471914,-0.0002471914
0.0001394997,0.0000000000,-0.0002099601,-0.0002099601
0.0001399997,0.0000000000,-0.0001169853,-0.0001169853
0.0001404997,0.0000000000,-0.0001430215,-0.0001430215
0.0001409997,0.0000000000,-0.0003825594,-0.0003825594
0.0001414997,0.0000000000,-0.0004415501,-0.0004415501
0.0001419997,0.0000000000,-0.0001391331,-0.0001391331
0.0001424997,0.0000000000,0.0000281295,0.0000281295
0.0001429998,0.0000000000,-0.0002185201,-0.0002185201
0.0001434998,0.0000000000,-0.0004209094,-0.0004209094
0.0001439998,0.0000000000,-0.0002847152,-0.0002847152
0.0001444998,0.0000000000,-0.0001398844,-0.0001398844
0.0001449998,0.0000000000,-0.0001675589,-0.0001675589
0.0001454998,0.0000000000,-0.0001660616,-0.0001660616
0.0001459998,0.0000000000,-0.0001684098,-0.0001684098
0.0001464998,0.0000000000,-0.0003205037,-0.0003205037
0.0001469998,0.0000000000,-0.0003588196,-0.0003588196
0.0001474998,0.0000000000,-0.0001070831,-0.0001070831
0.0001479998,0.0000000000,0.0000168762,0.0000168762
0.0001484998,0.0000000000,-0.0002305705,-0.0002305705
0.0001489998,0.0000000000,-0.0004031984,-0.0004031984
0.0001494998,0.0000000000,-0.0002310899,-0.0002310899
0.0001499998,0.0000000000,-0.0000794306,-0.0000794306
0.0001504998,0.0000000000,-0.0001462662,-0.0001462662
0.0001509998,0.0000000000,-0.0001898685,-0.0001898685
0.0001514998,0.0000000000,-0.0001826444,-0.0001826444
0.0001519998,0.0000000000,-0.0002748477,-0.0002748477
0.0001524998,0.0000000000,-0.0002825386,-0.0002825386
0.0001529998,0.0000000000,-0.0000769903,-0.0000769903
0.0001534998,0.0000000000,-0.0000117916,-0.0000117916
0.0001539998,0.0000000000,-0.0002466626,-0.0002466626
0.0001544998,0.0000000000,-0.0003627084,-0.0003627084
0.0001549998,0.0000000000,-0.0001739048,-0.0001739048
0.0001554998,0.0000000000,-0.0000505241,-0.0000505241
0.0001559998,0.0000000000,-0.0001422141,-0.0001422141
0.0001564999,0.0000000000,-0.0001969763,-0.0001969763
0.0001569999,0.0000000000,-0.0001848474,-0.0001848474
0.0001574999,0.0000000000,-0.0002388334,-0.0002388334
0.0001579999,0.0000000000,-0.0002172308,-0.0002172308
0.0001584999,0.0000000000,-0.0000538857,-0.0000538857
0.0001589999,0.0000000000,-0.0000476250,-0.0000476250
0.0001594999,0.0000000000,-0.0002586410,-0.0002586410
0.0001599999,0.0000000000,-0.0003099811,-0.0003099811
0.0001604999,0.0000000000,-0.0001216540,-0.0001216540
0.0001609999,0.0000000000,-0.0000427093,-0.0000427093
0.0001614999,0.0000000000,-0.0001462972,-0.0001462972
0.0001619999,0.0000000000,-0.0001937844,-0.0001937844
0.0001624999,0.0000000000,-0.0001793924,-0.0001793924
0.0001629999,0.0000000000,-0.0002071814,-0.0002071814
0.0001634999,0.0000000000,-0.0001627143,-0.0001627143
0.0001639999,0.0000000000,-0.0000415287,-0.0000415287
0.0001644999,0.0000000000,-0.0000848379,-0.0000848379
0.0001649999,0.0000000000,-0.0002604818,-0.0002604818
0.0001654999,0.0000000000,-0.0002522812,-0.0002522812
0.0001659999,0.0000000000,-0.0000806566,-0.0000806566
0.0001664999,0.0000000000,-0.0000481438,-0.0000481438
0.0001669999,0.0000000000,-0.0001515170,-0.0001515170
0.0001674999,0.0000000000,-0.0001848491,-0.0001848491
0.0001679999,0.0000000000,-0.0001697399,-0.0001697399
0.0001684999,0.0000000000,-0.0001769120,-0.0001769120
0.0001689999,0.0000000000,-0.0001188699,-0.0001188699
0.0001695000,0.0000000000,-0.0000408714,-0.0000408714
0.0001700000,0.0000000000,-0.0001186387,-0.0001186387
0.0001705000,0.0000000000,-0.0002499908,-0.0002499908
0.0001710000,0.0000000000,-0.0001957492,-0.0001957492
0.0001715000,0.0000000000,-0.0000533840,-0.0000533840
0.0001720000,0.0000000000,-0.0000604141,-0.0000604141
0.0001725000,0.0000000000,-0.0001543261,-0.0001543261
0.0001730000,0.0000000000,-0.0001733062,-0.0001733062
0.0001735000,0.0000000000,-0.0001573726,-0.0001573726
0.0001740000,0.0000000000,-0.0001471591,-0.0001471591
0.0001745000,0.0000000000,-0.0000862490,-0.0000862490
0.0001750000,0.0000000000,-0.0000502074,-0.0000502074
0.0001755000,0.0000000000,-0.0001449499,-0.0001449499
0.0001760000,0.0000000000,-0.0002283815,-0.0002283815
0.0001765000,0.0000000000,-0.0001453065,-0.0001453065
0.0001770000,0.0000000000,-0.0000390449,-0.0000390449
0.0001775000,0.0000000000,-0.0000746945,-0.0000746945
0.0001780000,0.0000000000,-0.0001538667,-0.0001538667
0.0001785000,0.0000000000,-0.0001608587,-0.0001608587
0.0001790000,0.0000000000,-0.0001426077,-0.0001426077
0.0001795000,0.0000000000,-0.0001187479,-0.0001187479
0.0001800000,0.0000000000,-0.0000651689,-0.0000651689
0.0001805000,0.0000000000,-0.0000659853,-0.0000659853
0.0001810000,0.0000000000,-0.0001612139,-0.0001612139
0.0001815000,0.0000000000,-0.0001990610,-0.0001990610
0.0001820000,0.0000000000,-0.0001039967,-0.0001039967
0.0001825001,0.0000000000,-0.0000349393,-0.0000349393
0.0001830001,0.0000000000,-0.0000880118,-0.0000880118
0.0001835001,0.0000000000,-0.0001505666,-0.0001505666
0.0001840001,0.0000000000,-0.0001478798,-0.0001478798
0.0001845001,0.0000000000,-0.0001257023,-0.0001257023
0.0001850001,0.0000000000,-0.0000935303,-0.0000935303
0.0001855001,0.0000000000,-0.0000549559,-0.0000549559
