time[s],Transmitted signal[dBSPL],Received signal1[dBSPL],Received signal2[dB],center[dB]
0.0000000000,-0.0099949827,0.0000000000,0.0000000000
0.0000005000,-0.0229087174,0.0000000000,0.0000000000
0.0000010000,-0.0334439017,0.0000000000,0.0000000000
0.0000015000,-0.0402728543,0.0000000000,0.0000000000
0.0000020000,-0.0424708240,0.0000000000,0.0000000000
0.0000025000,-0.0396377705,0.0000000000,0.0000000000
0.0000030000,-0.0319611393,0.0000000000,0.0000000000
0.0000035000,-0.0202111267,0.0000000000,0.0000000000
0.0000040000,-0.0056668525,0.0000000000,0.0000000000
0.0000045000,0.0100198211,0.0000000000,0.0000000000
0.0000050000,0.0250086784,0.0000000000,0.0000000000
0.0000055000,0.0374835096,0.0000000000,0.0000000000
0.0000060000,0.0458682701,0.0000000000,0.0000000000
0.0000065000,0.0490220077,0.0000000000,0.0000000000
0.0000070000,0.0463882275,0.0000000000,0.0000000000
0.0000075000,0.0380809978,0.0000000000,0.0000000000
0.0000080000,0.0248939134,0.0000000000,0.0000000000
0.0000085000,0.0082305241,0.0000000000,0.0000000000
0.0000090000,-0.0100413021,0.0000000000,0.0000000000
0.0000095000,-0.0277930535,0.0000000000,0.0000000000
0.0000100000,-0.0428779796,0.0000000000,0.0000000000
0.0000105000,-0.0533853285,0.0000000000,0.0000000000
0.0000110000,-0.0578745194,0.0000000000,0.0000000000
0.0000115000,-0.0555643030,0.0000000000,0.0000000000
0.0000120000,-0.0464511029,0.0000000000,0.0000000000
0.0000125000,-0.0313410349,0.0000000000,0.0000000000
0.0000130000,-0.0117876017,0.0000000000,0.0000000000
0.0000135000,0.0100595448,0.0000000000,0.0000000000
0.0000140000,0.0316832848,0.0000000000,0.0000000000
0.0000145000,0.0504794717,0.0000000000,0.0000000000
0.0000150000,0.0640599653,0.0000000000,0.0000000000
0.0000155000,0.0705438629,0.0000000000,0.0000000000
0.0000160000,0.0688024312,0.0000000000,0.0000000000
0.0000165000,0.0586279966,0.0000000000,0.0000000000
0.0000170000,0.0408035591,0.0000000000,0.0000000000
0.0000175000,0.0170606859,0.0000000000,0.0000000000
0.0000180000,-0.0100744218,0.0000000000,0.0000000000
0.0000185000,-0.0375349671,0.0000000000,0.0000000000
0.0000190000,-0.0620422848,0.0000000000,0.0000000000
0.0000195000,-0.0804766864,0.0000000000,0.0000000000
0.0000200000,-0.0902505070,-0.0000000000,-0.0000000000
0.0000205000,-0.0896395743,-0.0000000001,-0.0000000001
0.0000210000,-0.0780358091,-0.0000000009,-0.0000000009
0.0000215000,-0.0560866892,-0.0000000093,-0.0000000093
0.0000220000,-0.0257013645,-0.0000000712,-0.0000000712
0.0000225000,0.0100860642,-0.0000004254,-0.0000004254
0.0000230000,0.0473880433,-0.0000020535,-0.0000020535
0.0000235000,0.0818468779,-0.0000082097,-0.0000082097
0.0000240000,0.1090967655,-0.0000276616,-0.0000276616
0.0000245000,0.1252558231,-0.0000794924,-0.0000794924
0.0000250000,0.1274006516,-0.0001963779,-0.0001963779
0.0000255000,0.1139688045,-0.0004189128,-0.0004189128
0.0000260000,0.0850444809,-0.0007725680,-0.0007725680
0.0000265000,0.0424907058,-0.0012285215,-0.0012285215
0.0000270000,-0.0100943409,-0.0016705755,-0.0016705755
0.0000275000,-0.0676022694,-0.0019062333,-0.0019062333
0.0000280000,-0.1238057613,-0.0017441277,-0.0017441277
0.0000285000,-0.1718885750,-0.0011073706,-0.0011073706
0.0000290000,-0.2050649226,-0.0001047968,-0.0001047968
0.0000295000,-0.2172335386,0.0010023300,0.0010023300
0.0000300000,-0.2036044747,0.0019211830,0.0019211830
0.0000305000,-0.1612349898,0.0024526906,0.0024526906
0.0000310000,-0.0894210562,0.0025504432,0.0025504432
0.0000315000,0.0100993235,0.0022984419,0.0022984419
0.0000320000,0.1331564784,0.0018223336,0.0018223336
0.0000325000,0.2733794451,0.0011701413,0.0011701413
0.0000330000,0.4226319790,0.0002629862,0.0002629862
0.0000335000,0.5716199279,-0.0009711398,-0.0009711398
0.0000340000,0.7106176019,-0.0023547397,-0.0023547397
0.0000345000,0.8302505612,-0.0034148528,-0.0034148528
0.0000350000,0.9222652912,-0.0037073055,-0.0037073055
0.0000355000,0.9802147746,-0.0032003548,-0.0032003548
0.0000360000,1.0000000000,-0.0022396357,-0.0022396357
0.0000365000,0.9802147746,-0.0011468119,-0.0011468119
0.0000370000,0.9222652912,-0.0000131294,-0.0000131294
0.0000375000,0.8302505612,0.0011038479,0.0011038479
0.0000380000,0.7106176019,0.0020495167,0.0020495167
0.0000385000,0.5716199279,0.0027886471,0.0027886471
0.0000390000,0.4226319790,0.0034864075,0.0034864075
0.0000395000,0.2733794451,0.0041082553,0.0041082553
0.0000400000,0.1331564784,0.0041762837,0.0041762837
0.0000405000,0.0100993235,0.0033072620,0.0033072620
0.0000410000,-0.0894210562,0.0018363715,0.0018363715
0.0000415000,-0.1612349898,0.0004553053,0.0004553053
0.0000420000,-0.2036044747,-0.0006781977,-0.0006781977
0.0000425000,-0.2172335386,-0.0019480917,-0.0019480917
0.0000430000,-0.2050649226,-0.0034097112,-0.0034097112
0.0000435000,-0.1718885750,-0.0045114914,-0.0045114914
0.0000440000,-0.1238057613,-0.0048378156,-0.0048378156
0.0000445000,-0.0676022694,-0.0045747114,-0.0045747114
0.0000450000,-0.0100943409,-0.0039908807,-0.0039908807
0.0000455000,0.0424907058,-0.0029566563,-0.0029566563
0.0000460000,0.0850444809,-0.0013101998,-0.0013101998
0.0000465000,0.1139688045,0.0006803301,0.0006803301
0.0000470000,0.1274006516,0.0025572290,0.0025572290
0.0000475000,0.1252558231,0.0041197380,0.0041197380
0.0000480000,0.1090967655,0.0053724879,0.0053724879
0.0000485000,0.0818468779,0.0062238681,0.0062238681
0.0000490000,0.0473880433,0.0064437194,0.0064437194
0.0000495000,0.0100860642,0.0058380845,0.0058380845
0.0000500000,-0.0257013645,0.0044050184,0.0044050184
0.0000505000,-0.0560866892,0.0023740637,0.0023740637
0.0000510000,-0.0780358091,0.0000424902,0.0000424902
0.0000515000,-0.0896395743,-0.0024477583,-0.0024477583
0.0000520000,-0.0902505070,-0.0050051259,-0.0050051259
0.0000525000,-0.0804766864,-0.0072870301,-0.0072870301
0.0000530000,-0.0620422848,-0.0088247033,-0.0088247033
0.0000535000,-0.0375349671,-0.0094531514,-0.0094531514
0.0000540000,-0.0100744218,-0.0092375670,-0.0092375670
0.0000545000,0.0170606859,-0.0080256201,-0.0080256201
0.0000550000,0.0408035591,-0.0055742571,-0.0055742571
0.0000555000,0.0586279966,-0.0020774826,-0.0020774826
0.0000560000,0.0688024312,0.0019722022,0.0019722022
0.0000565000,0.0705438629,0.0063673593,0.0063673593
0.0000570000,0.0640599653,0.0110781044,0.0110781044
0.0000575000,0.0504794717,0.0157242920,0.0157242920
0.0000580000,0.0316832848,0.0197473057,0.0197473057
0.0000585000,0.0100595448,0.0229258034,0.0229258034
0.0000590000,-0.0117876017,0.0252086297,0.0252086297
0.0000595000,-0.0313410349,0.0263531115,0.0263531115
0.0000600000,-0.0464511029,0.0262336824,0.0262336824
0.0000605000,-0.0555643030,0.0251248665,0.0251248665
0.0000610000,-0.0578745194,0.0232587438,0.0232587438
0.0000615000,-0.0533853285,0.0205882154,0.0205882154
0.0000620000,-0.0428779796,0.0173145030,0.0173145030
0.0000625000,-0.0277930535,0.0140459463,0.0140459463
0.0000630000,-0.0100413021,0.0111570973,0.0111570973
0.0000635000,0.0082305241,0.0086061321,0.0086061321
0.0000640000,0.0248939134,0.0065107807,0.0065107807
0.0000645000,0.0380809978,0.0052153789,0.0052153789
0.0000650000,0.0463882275,0.0047401153,0.0047401153
0.0000655000,0.0490220077,0.0048132176,0.0048132176
0.0000660000,0.0458682701,0.0053518573,0.0053518573
0.0000665000,0.0374835096,0.0063091507,0.0063091507
0.0000670000,0.0250086784,0.0072942562,0.0072942562
0.0000675000,0.0100198211,0.0079025319,0.0079025319
0.0000680000,-0.0056668525,0.0080851689,0.0080851689
0.0000685000,-0.0202111267,0.0077794469,0.0077794469
0.0000690000,-0.0319611393,0.0066678915,0.0066678915
0.0000695000,-0.0396377705,0.0046423157,0.0046423157
0.0000700000,-0.0424708240,0.0019677524,0.0019677524
0.0000705000,-0.0402728543,-0.0011964908,-0.0011964908
0.0000710000,-0.0334439017,-0.0048502409,-0.0048502409
0.0000714999,-0.0229087174,-0.0086952467,-0.0086952467
0.0000719999,-0.0099949827,-0.0122334687,-0.0122334687
0.0000724999,0.0037304156,-0.0152507462,-0.0152507462
0.0000729999,0.0000000000,-0.0176843181,-0.0176843181
0.0000734999,0.0000000000,-0.0192563497,-0.0192563497
0.0000739999,0.0000000000,-0.0197184812,-0.0197184812
0.0000744999,0.0000000000,-0.0191435106,-0.0191435106
0.0000749999,0.0000000000,-0.0176466145,-0.0176466145
0.0000754999,0.0000000000,-0.0152426613,-0.0152426613
0.0000759999,0.0000000000,-0.0121741192,-0.0121741192
0.0000764999,0.0000000000,-0.0088853817,-0.0088853817
0.0000769999,0.0000000000,-0.0055947802,-0.0055947802
0.0000774999,0.0000000000,-0.0023713056,-0.0023713056
0.0000779999,0.0000000000,0.0004614415,0.0004614415
0.0000784999,0.0000000000,0.0024974386,0.0024974386
0.0000789999,0.0000000000,0.0036579587,0.0036579587
0.0000794999,0.0000000000,0.0040436080,0.0040436080
0.0000799999,0.0000000000,0.0036608148,0.0036608148
0.0000804999,0.0000000000,0.0025831033,0.0025831033
0.0000809999,0.0000000000,0.0010384249,0.0010384249
0.0000814999,0.0000000000,-0.0008235107,-0.0008235107
0.0000819999,0.0000000000,-0.0028849766,-0.0028849766
0.0000824999,0.0000000000,-0.0047970135,-0.0047970135
0.0000829999,0.0000000000,-0.0061826212,-0.0061826212
0.0000834999,0.0000000000,-0.0070078005,-0.0070078005
0.0000839999,0.0000000000,-0.0073906262,-0.0073906262
0.0000844999,0.0000000000,-0.0072554760,-0.0072554760
0.0000849999,0.0000000000,-0.0064941826,-0.0064941826
0.0000854999,0.0000000000,-0.0052133370,-0.0052133370
0.0000859998,0.0000000000,-0.0036090778,-0.0036090778
0.0000864998,0.0000000000,-0.0018689965,-0.0018689965
0.0000869998,0.0000000000,-0.0002566058,-0.0002566058
0.0000874998,0.0000000000,0.0010198293,0.0010198293
0.0000879998,0.0000000000,0.0019830398,0.0019830398
0.0000884998,0.0000000000,0.0026590286,0.0026590286
0.0000889998,0.0000000000,0.0028500177,0.0028500177
0.0000894998,0.0000000000,0.0024023175,0.0024023175
0.0000899998,0.0000000000,0.0014749662,0.0014749662
0.0000904998,0.0000000000,0.0003349771,0.0003349771
0.0000909998,0.0000000000,-0.0008753820,-0.0008753820
0.0000914998,0.0000000000,-0.0020651803,-0.0020651803
0.0000919998,0.0000000000,-0.0031407210,-0.0031407210
0.0000924998,0.0000000000,-0.0040443377,-0.0040443377
0.0000929998,0.0000000000,-0.0046524778,-0.0046524778
0.0000934998,0.0000000000,-0.0047521088,-0.0047521088
0.0000939998,0.0000000000,-0.0043031913,-0.0043031913
0.0000944998,0.0000000000,-0.0035389510,-0.0035389510
0.0000949998,0.0000000000,-0.0026626908,-0.0026626908
0.0000954998,0.0000000000,-0.0016679046,-0.0016679046
0.0000959998,0.0000000000,-0.0005460862,-0.0005460862
0.0000964998,0.0000000000,0.0005580633,0.0005580633
0.0000969998,0.0000000000,0.0014411174,0.0014411174
0.0000974998,0.0000000000,0.0019209327,0.0019209327
0.0000979998,0.0000000000,0.0018778066,0.0018778066
0.0000984998,0.0000000000,0.0013546816,0.0013546816
0.0000989998,0.0000000000,0.0005176843,0.0005176843
0.0000994998,0.0000000000,-0.0005328129,-0.0005328129
0.0000999998,0.0000000000,-0.0017293888,-0.0017293888
0.0001004997,0.0000000000,-0.0028112801,-0.0028112801
0.0001009997,0.0000000000,-0.0033841571,-0.0033841571
0.0001014997,0.0000000000,-0.0032674228,-0.0032674228
0.0001019997,0.0000000000,-0.0026394089,-0.0026394089
0.0001024997,0.0000000000,-0.0018580712,-0.0018580712
0.0001029997,0.0000000000,-0.0012266322,-0.0012266322
0.0001034997,0.0000000000,-0.0008329694,-0.0008329694
0.0001039997,0.0000000000,-0.0005209274,-0.0005209274
0.0001044997,0.0000000000,-0.0000975552,-0.0000975552
0.0001049997,0.0000000000,0.0003964436,0.0003964436
0.0001054997,0.0000000000,0.0006884867,0.0006884867
0.0001059997,0.0000000000,0.0005298011,0.0005298011
0.0001064997,0.0000000000,-0.0000691659,-0.0000691659
0.0001069997,0.0000000000,-0.0007694757,-0.0007694757
0.0001074997,0.0000000000,-0.0010972607,-0.0010972607
0.0001079997,0.0000000000,-0.0008798250,-0.0008798250
0.0001084997,0.0000000000,-0.0004519364,-0.0004519364
0.0001089997,0.0000000000,-0.0002366056,-0.0002366056
0.0001094997,0.0000000000,-0.0002419654,-0.0002419654
0.0001099997,0.0000000000,-0.0002515495,-0.0002515495
0.0001104997,0.0000000000,-0.0003221765,-0.0003221765
0.0001109997,0.0000000000,-0.0006286735,-0.0006286735
0.0001114997,0.0000000000,-0.0009152304,-0.0009152304
0.0001119997,0.0000000000,-0.0006983452,-0.0006983452
0.0001124997,0.0000000000,-0.0001085968,-0.0001085968
0.0001129997,0.0000000000,0.0000863458,0.0000863458
0.0001134997,0.0000000000,-0.0004171145,-0.0004171145
0.0001139997,0.0000000000,-0.0009158339,-0.0009158339
0.0001144996,0.0000000000,-0.0007199076,-0.0007199076
0.0001149996,0.0000000000,-0.0001909050,-0.0001909050
0.0001154996,0.0000000000,-0.0001164397,-0.0001164397
0.0001159996,0.0000000000,-0.0004706639,-0.0004706639
0.0001164996,0.0000000000,-0.0006013581,-0.0006013581
0.0001169996,0.0000000000,-0.0003823154,-0.0003823154
0.0001174996,0.0000000000,-0.0002951486,-0.0002951486
0.0001179996,0.0000000000,-0.0004697777,-0.0004697777
0.0001184996,0.0000000000,-0.0005119715,-0.0005119715
0.0001189996,0.0000000000,-0.0003061511,-0.0003061511
0.0001194996,0.0000000000,-0.0002143433,-0.0002143433
0.0001199996,0.0000000000,-0.0003916498,-0.0003916498
0.0001204996,0.0000000000,-0.0005426086,-0.0005426086
0.0001209996,0.0000000000,-0.0004501062,-0.0004501062
0.0001214996,0.0000000000,-0.0002659114,-0.0002659114
0.0001219996,0.0000000000,-0.0002193198,-0.0002193198
0.0001224996,0.0000000000,-0.0003451791,-0.0003451791
0.0001229996,0.0000000000,-0.0004874954,-0.0004874954
0.0001234996,0.0000000000,-0.0004476601,-0.0004476601
0.0001239996,0.0000000000,-0.0002463674,-0.0002463674
0.0001244996,0.0000000000,-0.0001826409,-0.0001826409
0.0001249996,0.0000000000,-0.0003825001,-0.0003825001
0.0001254996,0.0000000000,-0.0005078316,-0.0005078316
0.0001259996,0.0000000000,-0.0003120720,-0.0003120720
0.0001264996,0.0000000000,-0.0001342549,-0.0001342549
0.0001269996,0.0000000000,-0.0003025660,-0.0003025660
0.0001274996,0.0000000000,-0.0004969442,-0.0004969442
0.0001279996,0.0000000000,-0.0003488797,-0.0003488797
0.0001284996,0.0000000000,-0.0001482075,-0.0001482075
0.0001289996,0.0000000000,-0.0002559730,-0.0002559730
0.0001294996,0.0000000000,-0.0004122051,-0.0004122051
0.0001299997,0.0000000000,-0.0003177079,-0.0003177079
0.0001304997,0.0000000000,-0.0002252170,-0.0002252170
0.0001309997,0.0000000000,-0.0003269620,-0.0003269620
0.0001314997,0.0000000000,-0.0003330168,-0.0003330168
0.0001319997,0.0000000000,-0.0001712286,-0.0001712286
0.0001324997,0.0000000000,-0.0002129835,-0.0002129835
0.0001329997,0.0000000000,-0.0004371599,-0.0004371599
0.0001334997,0.0000000000,-0.0003786576,-0.0003786576
0.0001339997,0.0000000000,-0.0001043376,-0.0001043376
0.0001344997,0.0000000000,-0.0001363154,-0.0001363154
0.0001349997,0.0000000000,-0.0003946515,-0.0003946515
0.0001354997,0.0000000000,-0.0003714509,-0.0003714509
0.0001359997,0.0000000000,-0.0001672337,-0.0001672337
0.0001364997,0.0000000000,-0.0002079892,-0.0002079892
0.0001369997,0.0000000000,-0.0003307663,-0.0003307663
0.0001374997,0.0000000000,-0.0002208138,-0.0002208138
0.0001379997,0.0000000000,-0.0001454979,-0.0001454979
0.0001384997,0.0000000000,-0.0003234093,-0.0003234093
0.0001389997,0.0000000000,-0.0003779380,-0.0003779380
0.0001394997,0.0000000000,-0.0001533481,-0.0001533481
0.0001399997,0.0000000000,-0.0000912220,-0.0000912220
0.0001404997,0.0000000000,-0.0002988920,-0.0002988920
0.0001409997,0.0000000000,-0.0003402043,-0.0003402043
0.0001414997,0.0000000000,-0.0001786788,-0.0001786788
0.0001419997,0.0000000000,-0.0001893228,-0.0001893228
0.0001424997,0.0000000000,-0.0002944721,-0.0002944721
0.0001429998,0.0000000000,-0.0001932968,-0.0001932968
0.0001434998,0.0000000000,-0.0001031209,-0.0001031209
0.0001439998,0.0000000000,-0.0002744461,-0.0002744461
0.0001444998,0.0000000000,-0.0003738274,-0.0003738274
0.0001449998,0.0000000000,-0.0001750143,-0.0001750143
0.0001454998,0.0000000000,-0.0000565806,-0.0000565806
0.0001459998,0.0000000000,-0.0002127453,-0.0002127453
0.0001464998,0.0000000000,-0.0003020936,-0.0003020936
0.0001469998,0.0000000000,-0.0002120017,-0.0002120017
0.0001474998,0.0000000000,-0.0001993774,-0.0001993774
0.0001479998,0.0000000000,-0.0002332860,-0.0002332860
0.0001484998,0.0000000000,-0.0001306121,-0.0001306121
0.0001489998,0.0000000000,-0.0000925034,-0.0000925034
0.0001494998,0.0000000000,-0.0002792539,-0.0002792539
0.0001499998,0.0000000000,-0.0003596856,-0.0003596856
0.0001504998,0.0000000000,-0.0001524487,-0.0001524487
0.0001509998,0.0000000000,-0.0000216974,-0.0000216974
0.0001514998,0.0000000000,-0.0001631434,-0.0001631434
0.0001519998,0.0000000000,-0.0002847312,-0.0002847312
0.0001524998,0.0000000000,-0.0002407943,-0.0002407943
0.0001529998,0.0000000000,-0.0001956123,-0.0001956123
0.0001534998,0.0000000000,-0.0001600661,-0.0001600661
0.0001539998,0.0000000000,-0.0000759538,-0.0000759538
0.0001544998,0.0000000000,-0.0001132831,-0.0001132831
0.0001549998,0.0000000000,-0.0003019494,-0.0003019494
0.0001554998,0.0000000000,-0.0003245247,-0.0003245247
0.0001559998,0.0000000000,-0.0001034220,-0.0001034220
0.0001564999,0.0000000000,0.0000027575,0.0000027575
0.0001569999,0.0000000000,-0.0001488058,-0.0001488058
0.0001574999,0.0000000000,-0.0002836263,-0.0002836263
0.0001579999,0.0000000000,-0.0002519002,-0.0002519002
0.0001584999,0.0000000000,-0.0001682805,-0.0001682805
0.0001589999,0.0000000000,-0.0000906075,-0.0000906075
0.0001594999,0.0000000000,-0.0000498031,-0.0000498031
0.0001599999,0.0000000000,-0.0001534714,-0.0001534714
0.0001604999,0.0000000000,-0.0003152955,-0.0003152955
0.0001609999,0.0000000000,-0.0002688221,-0.0002688221
0.0001614999,0.0000000000,-0.0000500347,-0.0000500347
0.0001619999,0.0000000000,0.0000090746,0.0000090746
0.0001624999,0.0000000000,-0.0001582301,-0.0001582301
0.0001629999,0.0000000000,-0.0002866380,-0.0002866380
0.0001634999,0.0000000000,-0.0002414070,-0.0002414070
0.0001639999,0.0000000000,-0.0001239722,-0.0001239722
0.0001644999,0.0000000000,-0.0000382289,-0.0000382289
0.0001649999,0.0000000000,-0.0000541847,-0.0000541847
0.0001654999,0.0000000000,-0.0001964362,-0.0001964362
0.0001659999,0.0000000000,-0.0003068476,-0.0003068476
0.0001664999,0.0000000000,-0.0002022543,-0.0002022543
0.0001669999,0.0000000000,-0.0000077716,-0.0000077716
0.0001674999,0.0000000000,-0.0000025109,-0.0000025109
0.0001679999,0.0000000000,-0.0001787542,-0.0001787542
0.0001684999,0.0000000000,-0.0002841488,-0.0002841488
0.0001689999,0.0000000000,-0.0002115661,-0.0002115661
0.0001695000,0.0000000000,-0.0000744984,-0.0000744984
0.0001700000,0.0000000000,-0.0000102552,-0.0000102552
0.0001705000,0.0000000000,-0.0000803602,-0.0000803602
0.0001710000,0.0000000000,-0.0002280922,-0.0002280922
0.0001715000,0.0000000000,-0.0002765656,-0.0002765656
0.0001720000,0.0000000000,-0.0001368522,-0.0001368522
0.0001725000,0.0000000000,0.0000167458,0.0000167458
0.0001730000,0.0000000000,-0.0000268027,-0.0000268027
0.0001735000,0.0000000000,-0.0002004716,-0.0002004716
0.0001740000,0.0000000000,-0.0002709544,-0.0002709544
0.0001745000,0.0000000000,-0.0001682507,-0.0001682507
0.0001750000,0.0000000000,-0.0000312790,-0.0000312790
0.0001755000,0.0000000000,-0.0000071950,-0.0000071950
0.0001760000,0.0000000000,-0.0001153528,-0.0001153528
0.0001765000,0.0000000000,-0.0002407713,-0.0002407713
0.0001770000,0.0000000000,-0.0002318396,-0.0002318396
0.0001775000,0.0000000000,-0.0000818505,-0.0000818505
0.0001780000,0.0000000000,0.0000237931,0.0000237931
0.0001785000,0.0000000000,-0.0000574576,-0.0000574576
0.0001790000,0.0000000000,-0.0002168562,-0.0002168562
0.0001795000,0.0000000000,-0.0002455558,-0.0002455558
0.0001800000,0.0000000000,-0.0001192138,-0.0001192138
0.0001805000,0.0000000000,-0.0000025248,-0.0000025248
0.0001810000,0.0000000000,-0.0000237511,-0.0000237511
0.0001815000,0.0000000000,-0.0001470122,-0.0001470122
0.0001820000,0.0000000000,-0.0002339356,-0.0002339356
