time[s],Transmitted signal[dBSPL],Received signal1[dBSPL],Received signal2[dB],center[dB]
0.0000000000,-0.0099949827,0.0000000000,0.0000000000
0.0000005000,-0.0229087174,0.0000000000,0.0000000000
0.0000010000,-0.0334439017,0.0000000000,0.0000000000
0.0000015000,-0.0402728543,0.0000000000,0.0000000000
0.0000020000,-0.0424708240,0.0000000000,0.0000000000
0.0000025000,-0.0396377705,0.0000000000,0.0000000000
0.0000030000,-0.0319611393,0.0000000000,0.0000000000
0.0000035000,-0.0202111267,0.0000000000,0.0000000000
0.0000040000,-0.0056668525,0.0000000000,0.0000000000
0.0000045000,0.0100198211,0.0000000000,0.0000000000
0.0000050000,0.0250086784,0.0000000000,0.0000000000
0.0000055000,0.0374835096,0.0000000000,0.0000000000
0.0000060000,0.0458682701,0.0000000000,0.0000000000
0.0000065000,0.0490220077,0.0000000000,0.0000000000
0.0000070000,0.0463882275,0.0000000000,0.0000000000
0.0000075000,0.0380809978,0.0000000000,0.0000000000
0.0000080000,0.0248939134,0.0000000000,0.0000000000
0.0000085000,0.0082305241,0.0000000000,0.0000000000
0.0000090000,-0.0100413021,0.0000000000,0.0000000000
0.0000095000,-0.0277930535,0.0000000000,0.0000000000
0.0000100000,-0.0428779796,0.0000000000,0.0000000000
0.0000105000,-0.0533853285,0.0000000000,0.0000000000
0.0000110000,-0.0578745194,0.0000000000,0.0000000000
0.0000115000,-0.0555643030,0.0000000000,0.0000000000
0.0000120000,-0.0464511029,0.0000000000,0.0000000000
0.0000125000,-0.0313410349,0.0000000000,0.0000000000
0.0000130000,-0.0117876017,0.0000000000,0.0000000000
0.0000135000,0.0100595448,0.0000000000,0.0000000000
0.0000140000,0.0316832848,0.0000000000,0.0000000000
0.0000145000,0.0504794717,0.0000000000,0.0000000000
0.0000150000,0.0640599653,0.0000000000,0.0000000000
0.0000155000,0.0705438629,0.0000000000,0.0000000000
0.0000160000,0.0688024312,-0.0000000000,-0.0000000000
0.0000165000,0.0586279966,-0.0000000000,-0.0000000000
0.0000170000,0.0408035591,-0.0000000000,-0.0000000000
0.0000175000,0.0170606859,-0.0000000000,-0.0000000000
0.0000180000,-0.0100744218,-0.0000000000,-0.0000000000
0.0000185000,-0.0375349671,-0.0000000003,-0.0000000003
0.0000190000,-0.0620422848,-0.0000000013,-0.0000000013
0.0000195000,-0.0804766864,-0.0000000058,-0.0000000058
0.0000200000,-0.0902505070,-0.0000000230,-0.0000000230
0.0000205000,-0.0896395743,-0.0000000828,-0.0000000828
0.0000210000,-0.0780358091,-0.0000002707,-0.0000002707
0.0000215000,-0.0560866892,-0.0000008115,-0.0000008115
0.0000220000,-0.0257013645,-0.0000022415,-0.0000022415
0.0000225000,0.0100860642,-0.0000057297,-0.0000057297
0.0000230000,0.0473880433,-0.0000135986,-0.0000135986
0.0000235000,0.0818468779,-0.0000300389,-0.0000300389
0.0000240000,0.1090967655,-0.0000618627,-0.0000618627
0.0000245000,0.1252558231,-0.0001188841,-0.0001188841
0.0000250000,0.1274006516,-0.0002132129,-0.0002132129
0.0000255000,0.1139688045,-0.0003565611,-0.0003565611
0.0000260000,0.0850444809,-0.0005548956,-0.0005548956
0.0000265000,0.0424907058,-0.0008006751,-0.0008006751
0.0000270000,-0.0100943409,-0.0010645799,-0.0010645799
0.0000275000,-0.0676022694,-0.0012906025,-0.0012906025
0.0000280000,-0.1238057613,-0.0013995578,-0.0013995578
0.0000285000,-0.1718885750,-0.0013050095,-0.0013050095
0.0000290000,-0.2050649226,-0.0009413848,-0.0009413848
0.0000295000,-0.2172335386,-0.0002974074,-0.0002974074
0.0000300000,-0.2036044747,0.0005583420,0.0005583420
0.0000305000,-0.1612349898,0.0014749416,0.0014749416
0.0000310000,-0.0894210562,0.0022491980,0.0022491980
0.0000315000,0.0100993235,0.0026839329,0.0026839329
0.0000320000,0.1331564784,0.0026536279,0.0026536279
0.0000325000,0.2733794451,0.0021479144,0.0021479144
0.0000330000,0.4226319790,0.0012709352,0.0012709352
0.0000335000,0.5716199279,0.0001960174,0.0001960174
0.0000340000,0.7106176019,-0.0009015220,-0.0009015220
0.0000345000,0.8302505612,-0.0018970184,-0.0018970184
0.0000350000,0.9222652912,-0.0027229001,-0.0027229001
0.0000355000,0.9802147746,-0.0033262342,-0.0033262342
0.0000360000,1.0000000000,-0.0036169533,-0.0036169533
0.0000365000,0.9802147746,-0.0034631325,-0.0034631325
0.0000370000,0.9222652912,-0.0027515339,-0.0027515339
0.0000375000,0.8302505612,-0.0014727717,-0.0014727717
0.0000380000,0.7106176019,0.0002242952,0.0002242952
0.0000385000,0.5716199279,0.0020369408,0.0020369408
0.0000390000,0.4226319790,0.0035853563,0.0035853563
0.0000395000,0.2733794451,0.0045592166,0.0045592166
0.0000400000,0.1331564784,0.0048552938,0.0048552938
0.0000405000,0.0100993235,0.0045739324,0.0045739324
0.0000410000,-0.0894210562,0.0038660541,0.0038660541
0.0000415000,-0.1612349898,0.0028130799,0.0028130799
0.0000420000,-0.2036044747,0.0014666555,0.0014666555
0.0000425000,-0.2172335386,-0.0000792439,-0.0000792439
0.0000430000,-0.2050649226,-0.0017231386,-0.0017231386
0.0000435000,-0.1718885750,-0.0033714059,-0.0033714059
0.0000440000,-0.1238057613,-0.0048132772,-0.0048132772
0.0000445000,-0.0676022694,-0.0056885472,-0.0056885472
0.0000450000,-0.0100943409,-0.0057534985,-0.0057534985
0.0000455000,0.0424907058,-0.0051021432,-0.0051021432
0.0000460000,0.0850444809,-0.0039432431,-0.0039432431
0.0000465000,0.1139688045,-0.0022839028,-0.0022839028
0.0000470000,0.1274006516,-0.0001083368,-0.0001083368
0.0000475000,0.1252558231,0.0022501999,0.0022501999
0.0000480000,0.1090967655,0.0042914907,0.0042914907
0.0000485000,0.0818468779,0.0058465507,0.0058465507
0.0000490000,0.0473880433,0.0069952784,0.0069952784
0.0000495000,0.0100860642,0.0075481264,0.0075481264
0.0000500000,-0.0257013645,0.0071043260,0.0071043260
0.0000505000,-0.0560866892,0.0056428285,0.0056428285
0.0000510000,-0.0780358091,0.0035491576,0.0035491576
0.0000515000,-0.0896395743,0.0010205714,0.0010205714
0.0000520000,-0.0902505070,-0.0020052472,-0.0020052472
0.0000525000,-0.0804766864,-0.0052513834,-0.0052513834
0.0000530000,-0.0620422848,-0.0080082230,-0.0080082230
0.0000535000,-0.0375349671,-0.0097990856,-0.0097990856
0.0000540000,-0.0100744218,-0.0106522348,-0.0106522348
0.0000545000,0.0170606859,-0.0105924290,-0.0105924290
0.0000550000,0.0408035591,-0.0093493517,-0.0093493517
0.0000555000,0.0586279966,-0.0067219818,-0.0067219818
0.0000560000,0.0688024312,-0.0028468121,-0.0028468121
0.0000565000,0.0705438629,0.0019806188,0.0019806188
0.0000570000,0.0640599653,0.0074177934,0.0074177934
0.0000575000,0.0504794717,0.0129872151,0.0129872151
0.0000580000,0.0316832848,0.0181801002,0.0181801002
0.0000585000,0.0100595448,0.0226702671,0.0226702671
0.0000590000,-0.0117876017,0.0262514073,0.0262514073
0.0000595000,-0.0313410349,0.0286517087,0.0286517087
0.0000600000,-0.0464511029,0.0295794308,0.0295794308
0.0000605000,-0.0555643030,0.0288907196,0.0288907196
0.0000610000,-0.0578745194,0.0266670473,0.0266670473
0.0000615000,-0.0533853285,0.0232250150,0.0232250150
0.0000620000,-0.0428779796,0.0190120786,0.0190120786
0.0000625000,-0.0277930535,0.0143945105,0.0143945105
0.0000630000,-0.0100413021,0.0096567944,0.0096567944
0.0000635000,0.0082305241,0.0052217492,0.0052217492
0.0000640000,0.0248939134,0.0015765724,0.0015765724
0.0000645000,0.0380809978,-0.0010559128,-0.0010559128
0.0000650000,0.0463882275,-0.0026203536,-0.0026203536
0.0000655000,0.0490220077,-0.0028776792,-0.0028776792
0.0000660000,0.0458682701,-0.0016674265,-0.0016674265
0.0000665000,0.0374835096,0.0005686780,0.0005686780
0.0000670000,0.0250086784,0.0031259032,0.0031259032
0.0000675000,0.0100198211,0.0057863500,0.0057863500
0.0000680000,-0.0056668525,0.0086195283,0.0086195283
0.0000685000,-0.0202111267,0.0112362020,0.0112362020
0.0000690000,-0.0319611393,0.0129058762,0.0129058762
0.0000695000,-0.0396377705,0.0132473204,0.0132473204
0.0000700000,-0.0424708240,0.0122819450,0.0122819450
0.0000705000,-0.0402728543,0.0100869881,0.0100869881
0.0000710000,-0.0334439017,0.0068287505,0.0068287505
0.0000714999,-0.0229087174,0.0027967342,0.0027967342
0.0000719999,-0.0099949827,-0.0018615588,-0.0018615588
0.0000724999,0.0037304156,-0.0070122788,-0.0070122788
0.0000729999,0.0000000000,-0.0120804477,-0.0120804477
0.0000734999,0.0000000000,-0.0163036026,-0.0163036026
0.0000739999,0.0000000000,-0.0194194727,-0.0194194727
0.0000744999,0.0000000000,-0.0215215757,-0.0215215757
0.0000749999,0.0000000000,-0.0224311054,-0.0224311054
0.0000754999,0.0000000000,-0.0218584910,-0.0218584910
0.0000759999,0.0000000000,-0.0199377593,-0.0199377593
0.0000764999,0.0000000000,-0.0170334429,-0.0170334429
0.0000769999,0.0000000000,-0.0133464532,-0.0133464532
0.0000774999,0.0000000000,-0.0091418792,-0.0091418792
0.0000779999,0.0000000000,-0.0049352222,-0.0049352222
0.0000784999,0.0000000000,-0.0011320217,-0.0011320217
0.0000789999,0.0000000000,0.0020911221,0.0020911221
0.0000794999,0.0000000000,0.0044711633,0.0044711633
0.0000799999,0.0000000000,0.0057422370,0.0057422370
0.0000804999,0.0000000000,0.0059772977,0.0059772977
0.0000809999,0.0000000000,0.0053609274,0.0053609274
0.0000814999,0.0000000000,0.0038563330,0.0038563330
0.0000819999,0.0000000000,0.0015517706,0.0015517706
0.0000824999,0.0000000000,-0.0010386247,-0.0010386247
0.0000829999,0.0000000000,-0.0034361652,-0.0034361652
0.0000834999,0.0000000000,-0.0055500907,-0.0055500907
0.0000839999,0.0000000000,-0.0073148361,-0.0073148361
0.0000844999,0.0000000000,-0.0084638819,-0.0084638819
0.0000849999,0.0000000000,-0.0088238679,-0.0088238679
0.0000854999,0.0000000000,-0.0084021576,-0.0084021576
0.0000859998,0.0000000000,-0.0072157071,-0.0072157071
0.0000864998,0.0000000000,-0.0054268893,-0.0054268893
0.0000869998,0.0000000000,-0.0034417815,-0.0034417815
0.0000874998,0.0000000000,-0.0015250959,-0.0015250959
0.0000879998,0.0000000000,0.0003662874,0.0003662874
0.0000884998,0.0000000000,0.0021364442,0.0021364442
0.0000889998,0.0000000000,0.0033857222,0.0033857222
0.0000894998,0.0000000000,0.0038717152,0.0038717152
0.0000899998,0.0000000000,0.0037000009,0.0037000009
0.0000904998,0.0000000000,0.0030104057,0.0030104057
0.0000909998,0.0000000000,0.0018839426,0.0018839426
0.0000914998,0.0000000000,0.0004855597,0.0004855597
0.0000919998,0.0000000000,-0.0010411441,-0.0010411441
0.0000924998,0.0000000000,-0.0026411451,-0.0026411451
0.0000929998,0.0000000000,-0.0041024392,-0.0041024392
0.0000934998,0.0000000000,-0.0050669122,-0.0050669122
0.0000939998,0.0000000000,-0.0054258183,-0.0054258183
0.0000944998,0.0000000000,-0.0053480305,-0.0053480305
0.0000949998,0.0000000000,-0.0048980224,-0.0048980224
0.0000954998,0.0000000000,-0.0040080580,-0.0040080580
0.0000959998,0.0000000000,-0.0027626173,-0.0027626173
0.0000964998,0.0000000000,-0.0013697394,-0.0013697394
0.0000969998,0.0000000000,0.0000155320,0.0000155320
0.0000974998,0.0000000000,0.0012122690,0.0012122690
0.0000979998,0.0000000000,0.0019957917,0.0019957917
0.0000984998,0.0000000000,0.0023071156,0.0023071156
0.0000989998,0.0000000000,0.0022261071,0.0022261071
0.0000994998,0.0000000000,0.0017306376,0.0017306376
0.0000999998,0.0000000000,0.0007817140,0.0007817140
0.0001004997,0.0000000000,-0.0004288739,-0.0004288739
0.0001009997,0.0000000000,-0.0015978692,-0.0015978692
0.0001014997,0.0000000000,-0.0025459805,-0.0025459805
0.0001019997,0.0000000000,-0.0031503038,-0.0031503038
0.0001024997,0.0000000000,-0.0032790913,-0.0032790913
0.0001029997,0.0000000000,-0.0029533552,-0.0029533552
0.0001034997,0.0000000000,-0.0023585260,-0.0023585260
0.0001039997,0.0000000000,-0.0016500141,-0.0016500141
0.0001044997,0.0000000000,-0.0009425958,-0.0009425958
0.0001049997,0.0000000000,-0.0003968511,-0.0003968511
0.0001054997,0.0000000000,-0.0000855296,-0.0000855296
0.0001059997,0.0000000000,0.0001035252,0.0001035252
0.0001064997,0.0000000000,0.0002687329,0.0002687329
0.0001069997,0.0000000000,0.0003608040,0.0003608040
0.0001074997,0.0000000000,0.0003188274,0.0003188274
0.0001079997,0.0000000000,0.0001387163,0.0001387163
0.0001084997,0.0000000000,-0.0001944391,-0.0001944391
0.0001089997,0.0000000000,-0.0006342013,-0.0006342013
0.0001094997,0.0000000000,-0.0009861370,-0.0009861370
0.0001099997,0.0000000000,-0.0010677663,-0.0010677663
0.0001104997,0.0000000000,-0.0008718632,-0.0008718632
0.0001109997,0.0000000000,-0.0005009781,-0.0005009781
0.0001114997,0.0000000000,-0.0001124665,-0.0001124665
0.0001119997,0.0000000000,0.0000605092,0.0000605092
0.0001124997,0.0000000000,-0.0001190264,-0.0001190264
0.0001129997,0.0000000000,-0.0004804386,-0.0004804386
0.0001134997,0.0000000000,-0.0007156339,-0.0007156339
0.0001139997,0.0000000000,-0.0007223142,-0.0007223142
0.0001144996,0.0000000000,-0.0006004859,-0.0006004859
0.0001149996,0.0000000000,-0.0004259859,-0.0004259859
0.0001154996,0.0000000000,-0.0002443003,-0.0002443003
0.0001159996,0.0000000000,-0.0001826330,-0.0001826330
0.0001164996,0.0000000000,-0.0003298957,-0.0003298957
0.0001169996,0.0000000000,-0.0005389879,-0.0005389879
0.0001174996,0.0000000000,-0.0005606541,-0.0005606541
0.0001179996,0.0000000000,-0.0004000669,-0.0004000669
0.0001184996,0.0000000000,-0.0003278331,-0.0003278331
0.0001189996,0.0000000000,-0.0004400803,-0.0004400803
0.0001194996,0.0000000000,-0.0004725810,-0.0004725810
0.0001199996,0.0000000000,-0.0002780055,-0.0002780055
0.0001204996,0.0000000000,-0.0001682069,-0.0001682069
0.0001209996,0.0000000000,-0.0003895170,-0.0003895170
0.0001214996,0.0000000000,-0.0006048942,-0.0006048942
0.0001219996,0.0000000000,-0.0004429514,-0.0004429514
0.0001224996,0.0000000000,-0.0001942415,-0.0001942415
0.0001229996,0.0000000000,-0.0002905415,-0.0002905415
0.0001234996,0.0000000000,-0.0004871328,-0.0004871328
0.0001239996,0.0000000000,-0.0003453949,-0.0003453949
0.0001244996,0.0000000000,-0.0001185698,-0.0001185698
0.0001249996,0.0000000000,-0.0002877147,-0.0002877147
0.0001254996,0.0000000000,-0.0006080620,-0.0006080620
0.0001259996,0.0000000000,-0.0005186311,-0.0005186311
0.0001264996,0.0000000000,-0.0001497030,-0.0001497030
0.0001269996,0.0000000000,-0.0000613601,-0.0000613601
0.0001274996,0.0000000000,-0.0002965122,-0.0002965122
0.0001279996,0.0000000000,-0.0004583257,-0.0004583257
0.0001284996,0.0000000000,-0.0004257307,-0.0004257307
0.0001289996,0.0000000000,-0.0003538753,-0.0003538753
0.0001294996,0.0000000000,-0.0002682678,-0.0002682678
0.0001299997,0.0000000000,-0.0001590549,-0.0001590549
0.0001304997,0.0000000000,-0.0001714091,-0.0001714091
0.0001309997,0.0000000000,-0.0003441150,-0.0003441150
0.0001314997,0.0000000000,-0.0004611859,-0.0004611859
0.0001319997,0.0000000000,-0.0003785099,-0.0003785099
0.0001324997,0.0000000000,-0.0002137882,-0.0002137882
0.0001329997,0.0000000000,-0.0001327269,-0.0001327269
0.0001334997,0.0000000000,-0.0001895885,-0.0001895885
0.0001339997,0.0000000000,-0.0003337959,-0.0003337959
0.0001344997,0.0000000000,-0.0004084417,-0.0004084417
0.0001349997,0.0000000000,-0.0003080596,-0.0003080596
0.0001354997,0.0000000000,-0.0001860072,-0.0001860072
0.0001359997,0.0000000000,-0.0002174207,-0.0002174207
0.0001364997,0.0000000000,-0.0002626320,-0.0002626320
0.0001369997,0.0000000000,-0.0001819998,-0.0001819998
0.0001374997,0.0000000000,-0.0002030822,-0.0002030822
0.0001379997,0.0000000000,-0.0004304307,-0.0004304307
0.0001384997,0.0000000000,-0.0004499205,-0.0004499205
0.0001389997,0.0000000000,-0.0000787405,-0.0000787405
0.0001394997,0.0000000000,0.0001110010,0.0001110010
0.0001399997,0.0000000000,-0.0002493872,-0.0002493872
0.0001404997,0.0000000000,-0.0005931676,-0.0005931676
0.0001409997,0.0000000000,-0.0003929650,-0.0003929650
0.0001414997,0.0000000000,-0.0000320137,-0.0000320137
0.0001419997,0.0000000000,-0.0000179767,-0.0000179767
0.0001424997,0.0000000000,-0.0002044055,-0.0002044055
0.0001429998,0.0000000000,-0.0003194551,-0.0003194551
0.0001434998,0.0000000000,-0.0003822835,-0.0003822835
0.0001439998,0.0000000000,-0.0003214363,-0.0003214363
0.0001444998,0.0000000000,-0.0000638794,-0.0000638794
0.0001449998,0.0000000000,0.0000375231,0.0000375231
0.0001454998,0.0000000000,-0.0002584830,-0.0002584830
0.0001459998,0.0000000000,-0.0004853030,-0.0004853030
0.0001464998,0.0000000000,-0.0002598433,-0.0002598433
0.0001469998,0.0000000000,-0.0000128270,-0.0000128270
0.0001474998,0.0000000000,-0.0001402314,-0.0001402314
0.0001479998,0.0000000000,-0.0002966411,-0.0002966411
0.0001484998,0.0000000000,-0.0002011788,-0.0002011788
0.0001489998,0.0000000000,-0.0001518070,-0.0001518070
0.0001494998,0.0000000000,-0.0002660662,-0.0002660662
0.0001499998,0.0000000000,-0.0002451753,-0.0002451753
0.0001504998,0.0000000000,-0.0001042775,-0.0001042775
0.0001509998,0.0000000000,-0.0001377226,-0.0001377226
0.0001514998,0.0000000000,-0.0002457363,-0.0002457363
0.0001519998,0.0000000000,-0.0001950393,-0.0001950393
0.0001524998,0.0000000000,-0.0001606922,-0.0001606922
0.0001529998,0.0000000000,-0.0002636091,-0.0002636091
0.0001534998,0.0000000000,-0.0002245355,-0.0002245355
0.0001539998,0.0000000000,-0.0000276457,-0.0000276457
0.0001544998,0.0000000000,-0.0000717763,-0.0000717763
0.0001549998,0.0000000000,-0.0003327443,-0.0003327443
0.0001554998,0.0000000000,-0.0003414421,-0.0003414421
0.0001559998,0.0000000000,-0.0000941872,-0.0000941872
0.0001564999,0.0000000000,-0.0000165206,-0.0000165206
0.0001569999,0.0000000000,-0.0001486370,-0.0001486370
0.0001574999,0.0000000000,-0.0002288582,-0.0002288582
0.0001579999,0.0000000000,-0.0002466684,-0.0002466684
0.0001584999,0.0000000000,-0.0002469262,-0.0002469262
0.0001589999,0.0000000000,-0.0001158914,-0.0001158914
0.0001594999,0.0000000000,0.0000224474,0.0000224474
0.0001599999,0.0000000000,-0.0001179909,-0.0001179909
0.0001604999,0.0000000000,-0.0003607447,-0.0003607447
0.0001609999,0.0000000000,-0.0002933269,-0.0002933269
0.0001614999,0.0000000000,-0.0000356348,-0.0000356348
0.0001619999,0.0000000000,-0.0000017286,-0.0000017286
0.0001624999,0.0000000000,-0.0001639651,-0.0001639651
0.0001629999,0.0000000000,-0.0002427208,-0.0002427208
0.0001634999,0.0000000000,-0.0002236553,-0.0002236553
0.0001639999,0.0000000000,-0.0001790396,-0.0001790396
0.0001644999,0.0000000000,-0.0000741955,-0.0000741955
0.0001649999,0.0000000000,-0.0000210025,-0.0000210025
0.0001654999,0.0000000000,-0.0001664698,-0.0001664698
0.0001659999,0.0000000000,-0.0003085327,-0.0003085327
0.0001664999,0.0000000000,-0.0001970134,-0.0001970134
0.0001669999,0.0000000000,-0.0000211772,-0.0000211772
0.0001674999,0.0000000000,-0.0000580996,-0.0000580996
0.0001679999,0.0000000000,-0.0001874577,-0.0001874577
0.0001684999,0.0000000000,-0.0002019739,-0.0002019739
0.0001689999,0.0000000000,-0.0001610078,-0.0001610078
0.0001695000,0.0000000000,-0.0001389461,-0.0001389461
0.0001700000,0.0000000000,-0.0000900045,-0.0000900045
0.0001705000,0.0000000000,-0.0000745068,-0.0000745068
0.0001710000,0.0000000000,-0.0001681451,-0.0001681451
0.0001715000,0.0000000000,-0.0002246722,-0.0002246722
0.0001720000,0.0000000000,-0.0001300331,-0.0001300331
0.0001725000,0.0000000000,-0.0000523022,-0.0000523022
0.0001730000,0.0000000000,-0.0001154833,-0.0001154833
0.0001735000,0.0000000000,-0.0001751506,-0.0001751506
0.0001740000,0.0000000000,-0.0001401418,-0.0001401418
0.0001745000,0.0000000000,-0.0001175185,-0.0001175185
0.0001750000,0.0000000000,-0.0001357755,-0.0001357755
0.0001755000,0.0000000000,-0.0001166318,-0.0001166318
0.0001760000,0.0000000000,-0.0000972248,-0.0000972248
0.0001765000,0.0000000000,-0.0001388785,-0.0001388785
0.0001770000,0.0000000000,-0.0001577841,-0.0001577841
0.0001775000,0.0000000000,-0.0001073778,-0.0001073778
0.0001780000,0.0000000000,-0.0000927572,-0.0000927572
0.0001785000,0.0000000000,-0.0001387887,-0.0001387887
0.0001790000,0.0000000000,-0.0001379575,-0.0001379575
0.0001795000,0.0000000000,-0.0000937195,-0.0000937195
0.0001800000,0.0000000000,-0.0001062443,-0.0001062443
0.0001805000,0.0000000000,-0.0001456530,-0.0001456530
0.0001810000,0.0000000000,-0.0001255316,-0.0001255316
0.0001815000,0.0000000000,-0.0000918342,-0.0000918342
0.0001820000,0.0000000000,-0.0001081327,-0.0001081327
0.0001825001,0.0000000000,-0.0001238064,-0.0001238064
0.0001830001,0.0000000000,-0.0001095113,-0.0001095113
0.0001835001,0.0000000000,-0.0001156988,-0.0001156988
0.0001840001,0.0000000000,-0.0001305672,-0.0001305672
0.0001845001,0.0000000000,-0.0001009213,-0.0001009213
0.0001850001,0.0000000000,-0.0000750154,-0.0000750154
