time[s],Transmitted signal[dBSPL],Received signal1[dBSPL],Received signal2[dB],center[dB]
0.0000000000,-0.0099949827,0.0000000000,0.0000000000
0.0000005000,-0.0229087174,0.0000000000,0.0000000000
0.0000010000,-0.0334439017,0.0000000000,0.0000000000
0.0000015000,-0.0402728543,0.0000000000,0.0000000000
0.0000020000,-0.0424708240,0.0000000000,0.0000000000
0.0000025000,-0.0396377705,0.0000000000,0.0000000000
0.0000030000,-0.0319611393,0.0000000000,0.0000000000
0.0000035000,-0.0202111267,0.0000000000,0.0000000000
0.0000040000,-0.0056668525,0.0000000000,0.0000000000
0.0000045000,0.0100198211,0.0000000000,0.0000000000
0.0000050000,0.0250086784,0.0000000000,0.0000000000
0.0000055000,0.0374835096,0.0000000000,0.0000000000
0.0000060000,0.0458682701,0.0000000000,0.0000000000
0.0000065000,0.0490220077,0.0000000000,0.0000000000
0.0000070000,0.0463882275,0.0000000000,0.0000000000
0.0000075000,0.0380809978,0.0000000000,0.0000000000
0.0000080000,0.0248939134,0.0000000000,0.0000000000
0.0000085000,0.0082305241,0.0000000000,0.0000000000
0.0000090000,-0.0100413021,0.0000000000,0.0000000000
0.0000095000,-0.0277930535,0.0000000000,0.0000000000
0.0000100000,-0.0428779796,0.0000000000,0.0000000000
0.0000105000,-0.0533853285,0.0000000000,0.0000000000
0.0000110000,-0.0578745194,0.0000000000,0.0000000000
0.0000115000,-0.0555643030,0.0000000000,0.0000000000
0.0000120000,-0.0464511029,0.0000000000,0.0000000000
0.0000125000,-0.0313410349,0.0000000000,0.0000000000
0.0000130000,-0.0117876017,0.0000000000,0.0000000000
0.0000135000,0.0100595448,0.0000000000,0.0000000000
0.0000140000,0.0316832848,0.0000000000,0.0000000000
0.0000145000,0.0504794717,0.0000000000,0.0000000000
0.0000150000,0.0640599653,0.0000000000,0.0000000000
0.0000155000,0.0705438629,0.0000000000,0.0000000000
0.0000160000,0.0688024312,0.0000000000,0.0000000000
0.0000165000,0.0586279966,-0.0000000000,-0.0000000000
0.0000170000,0.0408035591,-0.0000000000,-0.0000000000
0.0000175000,0.0170606859,-0.0000000000,-0.0000000000
0.0000180000,-0.0100744218,-0.0000000001,-0.0000000001
0.0000185000,-0.0375349671,-0.0000000006,-0.0000000006
0.0000190000,-0.0620422848,-0.0000000034,-0.0000000034
0.0000195000,-0.0804766864,-0.0000000160,-0.0000000160
0.0000200000,-0.0902505070,-0.0000000653,-0.0000000653
0.0000205000,-0.0896395743,-0.0000002358,-0.0000002358
0.0000210000,-0.0780358091,-0.0000007636,-0.0000007636
0.0000215000,-0.0560866892,-0.0000022399,-0.0000022399
0.0000220000,-0.0257013645,-0.0000059990,-0.0000059990
0.0000225000,0.0100860642,-0.0000147540,-0.0000147540
0.0000230000,0.0473880433,-0.0000334641,-0.0000334641
0.0000235000,0.0818468779,-0.0000702106,-0.0000702106
0.0000240000,0.1090967655,-0.0001365196,-0.0001365196
0.0000245000,0.1252558231,-0.0002462005,-0.0002462005
0.0000250000,0.1274006516,-0.0004116203,-0.0004116203
0.0000255000,0.1139688045,-0.0006367891,-0.0006367891
0.0000260000,0.0850444809,-0.0009079966,-0.0009079966
0.0000265000,0.0424907058,-0.0011849410,-0.0011849410
0.0000270000,-0.0100943409,-0.0013975385,-0.0013975385
0.0000275000,-0.0676022694,-0.0014542702,-0.0014542702
0.0000280000,-0.1238057613,-0.0012653146,-0.0012653146
0.0000285000,-0.1718885750,-0.0007773759,-0.0007773759
0.0000290000,-0.2050649226,-0.0000090781,-0.0000090781
0.0000295000,-0.2172335386,0.0009298839,0.0009298839
0.0000300000,-0.2036044747,0.0018513346,0.0018513346
0.0000305000,-0.1612349898,0.0025373218,0.0025373218
0.0000310000,-0.0894210562,0.0028105869,0.0028105869
0.0000315000,0.0100993235,0.0025961651,0.0025961651
0.0000320000,0.1331564784,0.0019430374,0.0019430374
0.0000325000,0.2733794451,0.0009942729,0.0009942729
0.0000330000,0.4226319790,-0.0000782351,-0.0000782351
0.0000335000,0.5716199279,-0.0011389523,-0.0011389523
0.0000340000,0.7106176019,-0.0021153211,-0.0021153211
0.0000345000,0.8302505612,-0.0029657371,-0.0029657371
0.0000350000,0.9222652912,-0.0036118776,-0.0036118776
0.0000355000,0.9802147746,-0.0039008367,-0.0039008367
0.0000360000,1.0000000000,-0.0036498471,-0.0036498471
0.0000365000,0.9802147746,-0.0027503013,-0.0027503013
0.0000370000,0.9222652912,-0.0012524168,-0.0012524168
0.0000375000,0.8302505612,0.0006165062,0.0006165062
0.0000380000,0.7106176019,0.0024953589,0.0024953589
0.0000385000,0.5716199279,0.0039961990,0.0039961990
0.0000390000,0.4226319790,0.0048651956,0.0048651956
0.0000395000,0.2733794451,0.0050845309,0.0050845309
0.0000400000,0.1331564784,0.0047834921,0.0047834921
0.0000405000,0.0100993235,0.0040466990,0.0040466990
0.0000410000,-0.0894210562,0.0028763015,0.0028763015
0.0000415000,-0.1612349898,0.0013355050,0.0013355050
0.0000420000,-0.2036044747,-0.0004029741,-0.0004029741
0.0000425000,-0.2172335386,-0.0021898821,-0.0021898821
0.0000430000,-0.2050649226,-0.0039199768,-0.0039199768
0.0000435000,-0.1718885750,-0.0053491909,-0.0053491909
0.0000440000,-0.1238057613,-0.0061031808,-0.0061031808
0.0000445000,-0.0676022694,-0.0060182619,-0.0060182619
0.0000450000,-0.0100943409,-0.0052712308,-0.0052712308
0.0000455000,0.0424907058,-0.0040089544,-0.0040089544
0.0000460000,0.0850444809,-0.0021254853,-0.0021254853
0.0000465000,0.1139688045,0.0003358105,0.0003358105
0.0000470000,0.1274006516,0.0028613659,0.0028613659
0.0000475000,0.1252558231,0.0049164286,0.0049164286
0.0000480000,0.1090967655,0.0064560436,0.0064560436
0.0000485000,0.0818468779,0.0075928979,0.0075928979
0.0000490000,0.0473880433,0.0080429399,0.0080429399
0.0000495000,0.0100860642,0.0073966766,0.0073966766
0.0000500000,-0.0257013645,0.0057176263,0.0057176263
0.0000505000,-0.0560866892,0.0033724634,0.0033724634
0.0000510000,-0.0780358091,0.0004922054,0.0004922054
0.0000515000,-0.0896395743,-0.0028661389,-0.0028661389
0.0000520000,-0.0902505070,-0.0062254230,-0.0062254230
0.0000525000,-0.0804766864,-0.0089109354,-0.0089109354
0.0000530000,-0.0620422848,-0.0106437486,-0.0106437486
0.0000535000,-0.0375349671,-0.0114607895,-0.0114607895
0.0000540000,-0.0100744218,-0.0112119354,-0.0112119354
0.0000545000,0.0170606859,-0.0095786219,-0.0095786219
0.0000550000,0.0408035591,-0.0064714057,-0.0064714057
0.0000555000,0.0586279966,-0.0020858287,-0.0020858287
0.0000560000,0.0688024312,0.0032693911,0.0032693911
0.0000565000,0.0705438629,0.0091448957,0.0091448957
0.0000570000,0.0640599653,0.0149583090,0.0149583090
0.0000575000,0.0504794717,0.0202584062,0.0202584062
0.0000580000,0.0316832848,0.0248285234,0.0248285234
0.0000585000,0.0100595448,0.0284272246,0.0284272246
0.0000590000,-0.0117876017,0.0306326821,0.0306326821
0.0000595000,-0.0313410349,0.0310582872,0.0310582872
0.0000600000,-0.0464511029,0.0296311677,0.0296311677
0.0000605000,-0.0555643030,0.0266515575,0.0266515575
0.0000610000,-0.0578745194,0.0226084627,0.0226084627
0.0000615000,-0.0533853285,0.0178729929,0.0178729929
0.0000620000,-0.0428779796,0.0126326382,0.0126326382
0.0000625000,-0.0277930535,0.0072366246,0.0072366246
0.0000630000,-0.0100413021,0.0023674057,0.0023674057
0.0000635000,0.0082305241,-0.0014041041,-0.0014041041
0.0000640000,0.0248939134,-0.0039621489,-0.0039621489
0.0000645000,0.0380809978,-0.0052652042,-0.0052652042
0.0000650000,0.0463882275,-0.0050494843,-0.0050494843
0.0000655000,0.0490220077,-0.0033010012,-0.0033010012
0.0000660000,0.0458682701,-0.0005632939,-0.0005632939
0.0000665000,0.0374835096,0.0026258130,0.0026258130
0.0000670000,0.0250086784,0.0061320979,0.0061320979
0.0000675000,0.0100198211,0.0097416546,0.0097416546
0.0000680000,-0.0056668525,0.0128234178,0.0128234178
0.0000685000,-0.0202111267,0.0147746094,0.0147746094
0.0000690000,-0.0319611393,0.0153491423,0.0153491423
0.0000695000,-0.0396377705,0.0144595569,0.0144595569
0.0000700000,-0.0424708240,0.0121488180,0.0121488180
0.0000705000,-0.0402728543,0.0087092416,0.0087092416
0.0000710000,-0.0334439017,0.0043799821,0.0043799821
0.0000714999,-0.0229087174,-0.0008307225,-0.0008307225
0.0000719999,-0.0099949827,-0.0066137509,-0.0066137509
0.0000724999,0.0037304156,-0.0121059138,-0.0121059138
0.0000729999,0.0000000000,-0.0166095160,-0.0166095160
0.0000734999,0.0000000000,-0.0200624783,-0.0200624783
0.0000739999,0.0000000000,-0.0224750172,-0.0224750172
0.0000744999,0.0000000000,-0.0235235672,-0.0235235672
0.0000749999,0.0000000000,-0.0229878221,-0.0229878221
0.0000754999,0.0000000000,-0.0210172478,-0.0210172478
0.0000759999,0.0000000000,-0.0178482011,-0.0178482011
0.0000764999,0.0000000000,-0.0137837324,-0.0137837324
0.0000769999,0.0000000000,-0.0093663614,-0.0093663614
0.0000774999,0.0000000000,-0.0050698244,-0.0050698244
0.0000779999,0.0000000000,-0.0010392200,-0.0010392200
0.0000784999,0.0000000000,0.0025048291,0.0025048291
0.0000789999,0.0000000000,0.0050526592,0.0050526592
0.0000794999,0.0000000000,0.0063250349,0.0063250349
0.0000799999,0.0000000000,0.0064999643,0.0064999643
0.0000804999,0.0000000000,0.0057355221,0.0057355221
0.0000809999,0.0000000000,0.0040346612,0.0040346612
0.0000814999,0.0000000000,0.0016432689,0.0016432689
0.0000819999,0.0000000000,-0.0009886690,-0.0009886690
0.0000824999,0.0000000000,-0.0035968809,-0.0035968809
0.0000829999,0.0000000000,-0.0060008997,-0.0060008997
0.0000834999,0.0000000000,-0.0078573041,-0.0078573041
0.0000839999,0.0000000000,-0.0089169294,-0.0089169294
0.0000844999,0.0000000000,-0.0092102326,-0.0092102326
0.0000849999,0.0000000000,-0.0087462636,-0.0087462636
0.0000854999,0.0000000000,-0.0074638217,-0.0074638217
0.0000859998,0.0000000000,-0.0055806376,-0.0055806376
0.0000864998,0.0000000000,-0.0034997370,-0.0034997370
0.0000869998,0.0000000000,-0.0013857952,-0.0013857952
0.0000874998,0.0000000000,0.0007137444,0.0007137444
0.0000879998,0.0000000000,0.0025097346,0.0025097346
0.0000884998,0.0000000000,0.0036722752,0.0036722752
0.0000889998,0.0000000000,0.0041509951,0.0041509951
0.0000894998,0.0000000000,0.0040013543,0.0040013543
0.0000899998,0.0000000000,0.0032285065,0.0032285065
0.0000904998,0.0000000000,0.0019719377,0.0019719377
0.0000909998,0.0000000000,0.0004690776,0.0004690776
0.0000914998,0.0000000000,-0.0011930488,-0.0011930488
0.0000919998,0.0000000000,-0.0029298775,-0.0029298775
0.0000924998,0.0000000000,-0.0044109174,-0.0044109174
0.0000929998,0.0000000000,-0.0053308038,-0.0053308038
0.0000934998,0.0000000000,-0.0057097781,-0.0057097781
0.0000939998,0.0000000000,-0.0056504612,-0.0056504612
0.0000944998,0.0000000000,-0.0051075025,-0.0051075025
0.0000949998,0.0000000000,-0.0040904991,-0.0040904991
0.0000954998,0.0000000000,-0.0027647107,-0.0027647107
0.0000959998,0.0000000000,-0.0012768338,-0.0012768338
0.0000964998,0.0000000000,0.0002168850,0.0002168850
0.0000969998,0.0000000000,0.0014345627,0.0014345627
0.0000974998,0.0000000000,0.0021769712,0.0021769712
0.0000979998,0.0000000000,0.0024853577,0.0024853577
0.0000984998,0.0000000000,0.0023921088,0.0023921088
0.0000989998,0.0000000000,0.0017960381,0.0017960381
0.0000994998,0.0000000000,0.0007356027,0.0007356027
0.0000999998,0.0000000000,-0.0005175003,-0.0005175003
0.0001004997,0.0000000000,-0.0017023886,-0.0017023886
0.0001009997,0.0000000000,-0.0026423098,-0.0026423098
0.0001014997,0.0000000000,-0.0031564075,-0.0031564075
0.0001019997,0.0000000000,-0.0031781583,-0.0031781583
0.0001024997,0.0000000000,-0.0028492482,-0.0028492482
0.0001029997,0.0000000000,-0.0023253707,-0.0023253707
0.0001034997,0.0000000000,-0.0016763583,-0.0016763583
0.0001039997,0.0000000000,-0.0010365439,-0.0010365439
0.0001044997,0.0000000000,-0.0005718949,-0.0005718949
0.0001049997,0.0000000000,-0.0002653729,-0.0002653729
0.0001054997,0.0000000000,0.0000164611,0.0000164611
0.0001059997,0.0000000000,0.0002868014,0.0002868014
0.0001064997,0.0000000000,0.0004562607,0.0004562607
0.0001069997,0.0000000000,0.0004561121,0.0004561121
0.0001074997,0.0000000000,0.0002195439,0.0002195439
0.0001079997,0.0000000000,-0.0002616711,-0.0002616711
0.0001084997,0.0000000000,-0.0007894475,-0.0007894475
0.0001089997,0.0000000000,-0.0010790874,-0.0010790874
0.0001094997,0.0000000000,-0.0010363627,-0.0010363627
0.0001099997,0.0000000000,-0.0007549390,-0.0007549390
0.0001104997,0.0000000000,-0.0003626831,-0.0003626831
0.0001109997,0.0000000000,-0.0000452833,-0.0000452833
0.0001114997,0.0000000000,-0.0000212554,-0.0000212554
0.0001119997,0.0000000000,-0.0002900212,-0.0002900212
0.0001124997,0.0000000000,-0.0005785030,-0.0005785030
0.0001129997,0.0000000000,-0.0006727654,-0.0006727654
0.0001134997,0.0000000000,-0.0006216355,-0.0006216355
0.0001139997,0.0000000000,-0.0005379509,-0.0005379509
0.0001144996,0.0000000000,-0.0004190485,-0.0004190485
0.0001149996,0.0000000000,-0.0002729252,-0.0002729252
0.0001154996,0.0000000000,-0.0002347422,-0.0002347422
0.0001159996,0.0000000000,-0.0003858921,-0.0003858921
0.0001164996,0.0000000000,-0.0005516942,-0.0005516942
0.0001169996,0.0000000000,-0.0005003184,-0.0005003184
0.0001174996,0.0000000000,-0.0003304008,-0.0003304008
0.0001179996,0.0000000000,-0.0003561140,-0.0003561140
0.0001184996,0.0000000000,-0.0005416768,-0.0005416768
0.0001189996,0.0000000000,-0.0004912995,-0.0004912995
0.0001194996,0.0000000000,-0.0001805925,-0.0001805925
0.0001199996,0.0000000000,-0.0001180768,-0.0001180768
0.0001204996,0.0000000000,-0.0004643638,-0.0004643638
0.0001209996,0.0000000000,-0.0006711575,-0.0006711575
0.0001214996,0.0000000000,-0.0004218504,-0.0004218504
0.0001219996,0.0000000000,-0.0001794094,-0.0001794094
0.0001224996,0.0000000000,-0.0003032027,-0.0003032027
0.0001229996,0.0000000000,-0.0004299087,-0.0004299087
0.0001234996,0.0000000000,-0.0002736417,-0.0002736417
0.0001239996,0.0000000000,-0.0002028704,-0.0002028704
0.0001244996,0.0000000000,-0.0004556569,-0.0004556569
0.0001249996,0.0000000000,-0.0006021826,-0.0006021826
0.0001254996,0.0000000000,-0.0003395794,-0.0003395794
0.0001259996,0.0000000000,-0.0000611761,-0.0000611761
0.0001264996,0.0000000000,-0.0001518425,-0.0001518425
0.0001269996,0.0000000000,-0.0004004489,-0.0004004489
0.0001274996,0.0000000000,-0.0004842829,-0.0004842829
0.0001279996,0.0000000000,-0.0004248453,-0.0004248453
0.0001284996,0.0000000000,-0.0003189006,-0.0003189006
0.0001289996,0.0000000000,-0.0001680707,-0.0001680707
0.0001294996,0.0000000000,-0.0000995403,-0.0000995403
0.0001299997,0.0000000000,-0.0002668699,-0.0002668699
0.0001304997,0.0000000000,-0.0005051835,-0.0005051835
0.0001309997,0.0000000000,-0.0004984984,-0.0004984984
0.0001314997,0.0000000000,-0.0002461657,-0.0002461657
0.0001319997,0.0000000000,-0.0000493494,-0.0000493494
0.0001324997,0.0000000000,-0.0001175353,-0.0001175353
0.0001329997,0.0000000000,-0.0003667882,-0.0003667882
0.0001334997,0.0000000000,-0.0005111083,-0.0005111083
0.0001339997,0.0000000000,-0.0003549453,-0.0003549453
0.0001344997,0.0000000000,-0.0000941887,-0.0000941887
0.0001349997,0.0000000000,-0.0001067950,-0.0001067950
0.0001354997,0.0000000000,-0.0003416721,-0.0003416721
0.0001359997,0.0000000000,-0.0003742810,-0.0003742810
0.0001364997,0.0000000000,-0.0001845277,-0.0001845277
0.0001369997,0.0000000000,-0.0001930054,-0.0001930054
0.0001374997,0.0000000000,-0.0003950377,-0.0003950377
0.0001379997,0.0000000000,-0.0003303792,-0.0003303792
0.0001384997,0.0000000000,-0.0000407488,-0.0000407488
0.0001389997,0.0000000000,-0.0000657372,-0.0000657372
0.0001394997,0.0000000000,-0.0003977444,-0.0003977444
0.0001399997,0.0000000000,-0.0004753530,-0.0004753530
0.0001404997,0.0000000000,-0.0002157862,-0.0002157862
0.0001409997,0.0000000000,-0.0000570807,-0.0000570807
0.0001414997,0.0000000000,-0.0001207012,-0.0001207012
0.0001419997,0.0000000000,-0.0002184412,-0.0002184412
0.0001424997,0.0000000000,-0.0003428131,-0.0003428131
0.0001429998,0.0000000000,-0.0004306964,-0.0004306964
0.0001434998,0.0000000000,-0.0002288940,-0.0002288940
0.0001439998,0.0000000000,0.0000821507,0.0000821507
0.0001444998,0.0000000000,-0.0000345980,-0.0000345980
0.0001449998,0.0000000000,-0.0004550755,-0.0004550755
0.0001454998,0.0000000000,-0.0004900538,-0.0004900538
0.0001459998,0.0000000000,-0.0001180314,-0.0001180314
0.0001464998,0.0000000000,0.0000273950,0.0000273950
0.0001469998,0.0000000000,-0.0001693885,-0.0001693885
0.0001474998,0.0000000000,-0.0002891664,-0.0002891664
0.0001479998,0.0000000000,-0.0002653724,-0.0002653724
0.0001484998,0.0000000000,-0.0002720584,-0.0002720584
0.0001489998,0.0000000000,-0.0002003401,-0.0002003401
0.0001494998,0.0000000000,-0.0000401305,-0.0000401305
0.0001499998,0.0000000000,-0.0001015601,-0.0001015601
0.0001504998,0.0000000000,-0.0003397531,-0.0003397531
0.0001509998,0.0000000000,-0.0003223300,-0.0003223300
0.0001514998,0.0000000000,-0.0000929647,-0.0000929647
0.0001519998,0.0000000000,-0.0000871422,-0.0000871422
0.0001524998,0.0000000000,-0.0002453057,-0.0002453057
0.0001529998,0.0000000000,-0.0002131647,-0.0002131647
0.0001534998,0.0000000000,-0.0001146707,-0.0001146707
0.0001539998,0.0000000000,-0.0002036286,-0.0002036286
0.0001544998,0.0000000000,-0.0002705493,-0.0002705493
0.0001549998,0.0000000000,-0.0001420909,-0.0001420909
0.0001554998,0.0000000000,-0.0000816144,-0.0000816144
0.0001559998,0.0000000000,-0.0001937199,-0.0001937199
0.0001564999,0.0000000000,-0.0002219082,-0.0002219082
0.0001569999,0.0000000000,-0.0001509869,-0.0001509869
0.0001574999,0.0000000000,-0.0001875263,-0.0001875263
0.0001579999,0.0000000000,-0.0002228670,-0.0002228670
0.0001584999,0.0000000000,-0.0000980109,-0.0000980109
0.0001589999,0.0000000000,-0.0000517604,-0.0000517604
0.0001594999,0.0000000000,-0.0002295336,-0.0002295336
0.0001599999,0.0000000000,-0.0003108323,-0.0003108323
0.0001604999,0.0000000000,-0.0001401890,-0.0001401890
0.0001609999,0.0000000000,-0.0000306554,-0.0000306554
0.0001614999,0.0000000000,-0.0001268743,-0.0001268743
0.0001619999,0.0000000000,-0.0002060672,-0.0002060672
0.0001624999,0.0000000000,-0.0001968205,-0.0001968205
0.0001629999,0.0000000000,-0.0002014718,-0.0002014718
0.0001634999,0.0000000000,-0.0001542702,-0.0001542702
0.0001639999,0.0000000000,-0.0000384733,-0.0000384733
0.0001644999,0.0000000000,-0.0000738863,-0.0000738863
0.0001649999,0.0000000000,-0.0002613390,-0.0002613390
0.0001654999,0.0000000000,-0.0002791230,-0.0002791230
0.0001659999,0.0000000000,-0.0000889998,-0.0000889998
0.0001664999,0.0000000000,-0.0000143689,-0.0000143689
0.0001669999,0.0000000000,-0.0001307639,-0.0001307639
0.0001674999,0.0000000000,-0.0002104496,-0.0002104496
0.0001679999,0.0000000000,-0.0001930047,-0.0001930047
0.0001684999,0.0000000000,-0.0001644735,-0.0001644735
0.0001689999,0.0000000000,-0.0001023484,-0.0001023484
0.0001695000,0.0000000000,-0.0000402046,-0.0000402046
0.0001700000,0.0000000000,-0.0001196134,-0.0001196134
0.0001705000,0.0000000000,-0.0002549841,-0.0002549841
0.0001710000,0.0000000000,-0.0002081100,-0.0002081100
0.0001715000,0.0000000000,-0.0000483531,-0.0000483531
0.0001720000,0.0000000000,-0.0000384721,-0.0000384721
0.0001725000,0.0000000000,-0.0001556833,-0.0001556833
0.0001730000,0.0000000000,-0.0001971891,-0.0001971891
0.0001735000,0.0000000000,-0.0001572490,-0.0001572490
0.0001740000,0.0000000000,-0.0001236464,-0.0001236464
0.0001745000,0.0000000000,-0.0000841653,-0.0000841653
0.0001750000,0.0000000000,-0.0000689177,-0.0000689177
0.0001755000,0.0000000000,-0.0001482027,-0.0001482027
0.0001760000,0.0000000000,-0.0002167058,-0.0002167058
0.0001765000,0.0000000000,-0.0001396901,-0.0001396901
0.0001770000,0.0000000000,-0.0000377654,-0.0000377654
0.0001775000,0.0000000000,-0.0000775433,-0.0000775433
0.0001780000,0.0000000000,-0.0001683863,-0.0001683863
0.0001785000,0.0000000000,-0.0001658551,-0.0001658551
0.0001790000,0.0000000000,-0.0001181044,-0.0001181044
0.0001795000,0.0000000000,-0.0000996992,-0.0000996992
0.0001800000,0.0000000000,-0.0000872944,-0.0000872944
0.0001805000,0.0000000000,-0.0000953081,-0.0000953081
0.0001810000,0.0000000000,-0.0001520027,-0.0001520027
0.0001815000,0.0000000000,-0.0001694952,-0.0001694952
0.0001820000,0.0000000000,-0.0000941949,-0.0000941949
0.0001825001,0.0000000000,-0.0000482125,-0.0000482125
0.0001830001,0.0000000000,-0.0001087103,-0.0001087103
0.0001835001,0.0000000000,-0.0001621861,-0.0001621861
0.0001840001,0.0000000000,-0.0001307158,-0.0001307158
0.0001845001,0.0000000000,-0.0000912157,-0.0000912157
0.0001850001,0.0000000000,-0.0000911825,-0.0000911825
