time[s],Transmitted signal[dBSPL],Received signal1[dBSPL],Received signal2[dB],center[dB]
0.0000000000,-0.0099949827,0.0000000000,0.0000000000
0.0000005000,-0.0229087174,0.0000000000,0.0000000000
0.0000010000,-0.0334439017,0.0000000000,0.0000000000
0.0000015000,-0.0402728543,0.0000000000,0.0000000000
0.0000020000,-0.0424708240,0.0000000000,0.0000000000
0.0000025000,-0.0396377705,0.0000000000,0.0000000000
0.0000030000,-0.0319611393,0.0000000000,0.0000000000
0.0000035000,-0.0202111267,0.0000000000,0.0000000000
0.0000040000,-0.0056668525,0.0000000000,0.0000000000
0.0000045000,0.0100198211,0.0000000000,0.0000000000
0.0000050000,0.0250086784,0.0000000000,0.0000000000
0.0000055000,0.0374835096,0.0000000000,0.0000000000
0.0000060000,0.0458682701,0.0000000000,0.0000000000
0.0000065000,0.0490220077,0.0000000000,0.0000000000
0.0000070000,0.0463882275,0.0000000000,0.0000000000
0.0000075000,0.0380809978,0.0000000000,0.0000000000
0.0000080000,0.0248939134,0.0000000000,0.0000000000
0.0000085000,0.0082305241,0.0000000000,0.0000000000
0.0000090000,-0.0100413021,0.0000000000,0.0000000000
0.0000095000,-0.0277930535,0.0000000000,0.0000000000
0.0000100000,-0.0428779796,0.0000000000,0.0000000000
0.0000105000,-0.0533853285,0.0000000000,0.0000000000
0.0000110000,-0.0578745194,0.0000000000,0.0000000000
0.0000115000,-0.0555643030,0.0000000000,0.0000000000
0.0000120000,-0.0464511029,0.0000000000,0.0000000000
0.0000125000,-0.0313410349,0.0000000000,0.0000000000
0.0000130000,-0.0117876017,0.0000000000,0.0000000000
0.0000135000,0.0100595448,0.0000000000,0.0000000000
0.0000140000,0.0316832848,0.0000000000,0.0000000000
0.0000145000,0.0504794717,0.0000000000,0.0000000000
0.0000150000,0.0640599653,0.0000000000,0.0000000000
0.0000155000,0.0705438629,0.0000000000,0.0000000000
0.0000160000,0.0688024312,0.0000000000,0.0000000000
0.0000165000,0.0586279966,-0.0000000000,-0.0000000000
0.0000170000,0.0408035591,-0.0000000000,-0.0000000000
0.0000175000,0.0170606859,-0.0000000000,-0.0000000000
0.0000180000,-0.0100744218,-0.0000000000,-0.0000000000
0.0000185000,-0.0375349671,-0.0000000001,-0.0000000001
0.0000190000,-0.0620422848,-0.0000000006,-0.0000000006
0.0000195000,-0.0804766864,-0.0000000032,-0.0000000032
0.0000200000,-0.0902505070,-0.0000000139,-0.0000000139
0.0000205000,-0.0896395743,-0.0000000533,-0.0000000533
0.0000210000,-0.0780358091,-0.0000001842,-0.0000001842
0.0000215000,-0.0560866892,-0.0000005787,-0.0000005787
0.0000220000,-0.0257013645,-0.0000016647,-0.0000016647
0.0000225000,0.0100860642,-0.0000044090,-0.0000044090
0.0000230000,0.0473880433,-0.0000107980,-0.0000107980
0.0000235000,0.0818468779,-0.0000245340,-0.0000245340
0.0000240000,0.1090967655,-0.0000518346,-0.0000518346
0.0000245000,0.1252558231,-0.0001019826,-0.0001019826
0.0000250000,0.1274006516,-0.0001869553,-0.0001869553
0.0000255000,0.1139688045,-0.0003192174,-0.0003192174
0.0000260000,0.0850444809,-0.0005068677,-0.0005068677
0.0000265000,0.0424907058,-0.0007461114,-0.0007461114
0.0000270000,-0.0100943409,-0.0010126187,-0.0010126187
0.0000275000,-0.0676022694,-0.0012553581,-0.0012553581
0.0000280000,-0.1238057613,-0.0013979734,-0.0013979734
0.0000285000,-0.1718885750,-0.0013522850,-0.0013522850
0.0000290000,-0.2050649226,-0.0010448712,-0.0010448712
0.0000295000,-0.2172335386,-0.0004510775,-0.0004510775
0.0000300000,-0.2036044747,0.0003762792,0.0003762792
0.0000305000,-0.1612349898,0.0012993037,0.0012993037
0.0000310000,-0.0894210562,0.0021194515,0.0021194515
0.0000315000,0.0100993235,0.0026321500,0.0026321500
0.0000320000,0.1331564784,0.0026938780,0.0026938780
0.0000325000,0.2733794451,0.0022728860,0.0022728860
0.0000330000,0.4226319790,0.0014570344,0.0014570344
0.0000335000,0.5716199279,0.0004122140,0.0004122140
0.0000340000,0.7106176019,-0.0006856752,-0.0006856752
0.0000345000,0.8302505612,-0.0017047523,-0.0017047523
0.0000350000,0.9222652912,-0.0025677476,-0.0025677476
0.0000355000,0.9802147746,-0.0032201479,-0.0032201479
0.0000360000,1.0000000000,-0.0035832282,-0.0035832282
0.0000365000,0.9802147746,-0.0035316558,-0.0035316558
0.0000370000,0.9222652912,-0.0029315942,-0.0029315942
0.0000375000,0.8302505612,-0.0017384808,-0.0017384808
0.0000380000,0.7106176019,-0.0000873903,-0.0000873903
0.0000385000,0.5716199279,0.0017146275,0.0017146275
0.0000390000,0.4226319790,0.0033040850,0.0033040850
0.0000395000,0.2733794451,0.0043917163,0.0043917163
0.0000400000,0.1331564784,0.0048309881,0.0048309881
0.0000405000,0.0100993235,0.0046370593,0.0046370593
0.0000410000,-0.0894210562,0.0039640348,0.0039640348
0.0000415000,-0.1612349898,0.0029931648,0.0029931648
0.0000420000,-0.2036044747,0.0017846370,0.0017846370
0.0000425000,-0.2172335386,0.0002904139,0.0002904139
0.0000430000,-0.2050649226,-0.0014375884,-0.0014375884
0.0000435000,-0.1718885750,-0.0031379256,-0.0031379256
0.0000440000,-0.1238057613,-0.0045181694,-0.0045181694
0.0000445000,-0.0676022694,-0.0054352907,-0.0054352907
0.0000450000,-0.0100943409,-0.0057877265,-0.0057877265
0.0000455000,0.0424907058,-0.0053916667,-0.0053916667
0.0000460000,0.0850444809,-0.0041869506,-0.0041869506
0.0000465000,0.1139688045,-0.0024422309,-0.0024422309
0.0000470000,0.1274006516,-0.0004942083,-0.0004942083
0.0000475000,0.1252558231,0.0015938663,0.0015938663
0.0000480000,0.1090967655,0.0038054655,0.0038054655
0.0000485000,0.0818468779,0.0057564913,0.0057564913
0.0000490000,0.0473880433,0.0069360724,0.0069360724
0.0000495000,0.0100860642,0.0072768982,0.0072768982
0.0000500000,-0.0257013645,0.0070247389,0.0070247389
0.0000505000,-0.0560866892,0.0061146468,0.0061146468
0.0000510000,-0.0780358091,0.0042216075,0.0042216075
0.0000515000,-0.0896395743,0.0014382312,0.0014382312
0.0000520000,-0.0902505070,-0.0016445899,-0.0016445899
0.0000525000,-0.0804766864,-0.0045792926,-0.0045792926
0.0000530000,-0.0620422848,-0.0072611696,-0.0072611696
0.0000535000,-0.0375349671,-0.0094555728,-0.0094555728
0.0000540000,-0.0100744218,-0.0106833382,-0.0106833382
0.0000545000,0.0170606859,-0.0106856385,-0.0106856385
0.0000550000,0.0408035591,-0.0095437597,-0.0095437597
0.0000555000,0.0586279966,-0.0072758952,-0.0072758952
0.0000560000,0.0688024312,-0.0037515189,-0.0037515189
0.0000565000,0.0705438629,0.0009242182,0.0009242182
0.0000570000,0.0640599653,0.0062879920,0.0062879920
0.0000575000,0.0504794717,0.0118119409,0.0118119409
0.0000580000,0.0316832848,0.0170782004,0.0170782004
0.0000585000,0.0100595448,0.0217280965,0.0217280965
0.0000590000,-0.0117876017,0.0254689064,0.0254689064
0.0000595000,-0.0313410349,0.0280863345,0.0280863345
0.0000600000,-0.0464511029,0.0293527078,0.0293527078
0.0000605000,-0.0555643030,0.0290509444,0.0290509444
0.0000610000,-0.0578745194,0.0271625146,0.0271625146
0.0000615000,-0.0533853285,0.0239389427,0.0239389427
0.0000620000,-0.0428779796,0.0198125131,0.0198125131
0.0000625000,-0.0277930535,0.0152889472,0.0152889472
0.0000630000,-0.0100413021,0.0107667353,0.0107667353
0.0000635000,0.0082305241,0.0064088898,0.0064088898
0.0000640000,0.0248939134,0.0024142792,0.0024142792
0.0000645000,0.0380809978,-0.0006565801,-0.0006565801
0.0000650000,0.0463882275,-0.0022432897,-0.0022432897
0.0000655000,0.0490220077,-0.0024065827,-0.0024065827
0.0000660000,0.0458682701,-0.0016037424,-0.0016037424
0.0000665000,0.0374835096,0.0000125837,0.0000125837
0.0000670000,0.0250086784,0.0024900930,0.0024900930
0.0000675000,0.0100198211,0.0054636630,0.0054636630
0.0000680000,-0.0056668525,0.0082953963,0.0082953963
0.0000685000,-0.0202111267,0.0106503712,0.0106503712
0.0000690000,-0.0319611393,0.0123716556,0.0123716556
0.0000695000,-0.0396377705,0.0130725093,0.0130725093
0.0000700000,-0.0424708240,0.0124020195,0.0124020195
0.0000705000,-0.0402728543,0.0104267029,0.0104267029
0.0000710000,-0.0334439017,0.0073717521,0.0073717521
0.0000714999,-0.0229087174,0.0033738394,0.0033738394
0.0000719999,-0.0099949827,-0.0012803068,-0.0012803068
0.0000724999,0.0037304156,-0.0061517451,-0.0061517451
0.0000729999,0.0000000000,-0.0109795071,-0.0109795071
0.0000734999,0.0000000000,-0.0155108860,-0.0155108860
0.0000739999,0.0000000000,-0.0191313364,-0.0191313364
0.0000744999,0.0000000000,-0.0212826300,-0.0212826300
0.0000749999,0.0000000000,-0.0220512263,-0.0220512263
0.0000754999,0.0000000000,-0.0217676032,-0.0217676032
0.0000759999,0.0000000000,-0.0203607678,-0.0203607678
0.0000764999,0.0000000000,-0.0176643245,-0.0176643245
0.0000769999,0.0000000000,-0.0139666721,-0.0139666721
0.0000774999,0.0000000000,-0.0097998623,-0.0097998623
0.0000779999,0.0000000000,-0.0055831848,-0.0055831848
0.0000784999,0.0000000000,-0.0017162801,-0.0017162801
0.0000789999,0.0000000000,0.0014597627,0.0014597627
0.0000794999,0.0000000000,0.0038947349,0.0038947349
0.0000799999,0.0000000000,0.0055752327,0.0055752327
0.0000804999,0.0000000000,0.0061857812,0.0061857812
0.0000809999,0.0000000000,0.0055146338,0.0055146338
0.0000814999,0.0000000000,0.0039113844,0.0039113844
0.0000819999,0.0000000000,0.0018761614,0.0018761614
0.0000824999,0.0000000000,-0.0004304978,-0.0004304978
0.0000829999,0.0000000000,-0.0029079278,-0.0029079278
0.0000834999,0.0000000000,-0.0052198009,-0.0052198009
0.0000839999,0.0000000000,-0.0070649609,-0.0070649609
0.0000844999,0.0000000000,-0.0083127087,-0.0083127087
0.0000849999,0.0000000000,-0.0087915510,-0.0087915510
0.0000854999,0.0000000000,-0.0083940737,-0.0083940737
0.0000859998,0.0000000000,-0.0073223012,-0.0073223012
0.0000864998,0.0000000000,-0.0058326703,-0.0058326703
0.0000869998,0.0000000000,-0.0039622425,-0.0039622425
0.0000874998,0.0000000000,-0.0018234875,-0.0018234875
0.0000879998,0.0000000000,0.0002030311,0.0002030311
0.0000884998,0.0000000000,0.0018356543,0.0018356543
0.0000889998,0.0000000000,0.0030507147,0.0030507147
0.0000894998,0.0000000000,0.0037610822,0.0037610822
0.0000899998,0.0000000000,0.0037881171,0.0037881171
0.0000904998,0.0000000000,0.0031750780,0.0031750780
0.0000909998,0.0000000000,0.0021276586,0.0021276586
0.0000914998,0.0000000000,0.0007487747,0.0007487747
0.0000919998,0.0000000000,-0.0008494756,-0.0008494756
0.0000924998,0.0000000000,-0.0024081261,-0.0024081261
0.0000929998,0.0000000000,-0.0037414925,-0.0037414925
0.0000934998,0.0000000000,-0.0048050606,-0.0048050606
0.0000939998,0.0000000000,-0.0054484261,-0.0054484261
0.0000944998,0.0000000000,-0.0054730535,-0.0054730535
0.0000949998,0.0000000000,-0.0049457075,-0.0049457075
0.0000954998,0.0000000000,-0.0040942165,-0.0040942165
0.0000959998,0.0000000000,-0.0029890062,-0.0029890062
0.0000964998,0.0000000000,-0.0016447252,-0.0016447252
0.0000969998,0.0000000000,-0.0002479675,-0.0002479675
0.0000974998,0.0000000000,0.0009728729,0.0009728729
0.0000979998,0.0000000000,0.0018862674,0.0018862674
0.0000984998,0.0000000000,0.0023533073,0.0023533073
0.0000989998,0.0000000000,0.0022695842,0.0022695842
0.0000994998,0.0000000000,0.0017361676,0.0017361676
0.0000999998,0.0000000000,0.0009240233,0.0009240233
0.0001004997,0.0000000000,-0.0001316985,-0.0001316985
0.0001009997,0.0000000000,-0.0013553633,-0.0013553633
0.0001014997,0.0000000000,-0.0024476426,-0.0024476426
0.0001019997,0.0000000000,-0.0031138905,-0.0031138905
0.0001024997,0.0000000000,-0.0032872842,-0.0032872842
0.0001029997,0.0000000000,-0.0030258833,-0.0030258833
0.0001034997,0.0000000000,-0.0024358674,-0.0024358674
0.0001039997,0.0000000000,-0.0017239046,-0.0017239046
0.0001044997,0.0000000000,-0.0010809960,-0.0010809960
0.0001049997,0.0000000000,-0.0005409461,-0.0005409461
0.0001054997,0.0000000000,-0.0001048399,-0.0001048399
0.0001059997,0.0000000000,0.0001556312,0.0001556312
0.0001064997,0.0000000000,0.0002484151,0.0002484151
0.0001069997,0.0000000000,0.0002950731,0.0002950731
0.0001074997,0.0000000000,0.0003170256,0.0003170256
0.0001079997,0.0000000000,0.0001968317,0.0001968317
0.0001084997,0.0000000000,-0.0001191033,-0.0001191033
0.0001089997,0.0000000000,-0.0005497302,-0.0005497302
0.0001094997,0.0000000000,-0.0009492201,-0.0009492201
0.0001099997,0.0000000000,-0.0011230208,-0.0011230208
0.0001104997,0.0000000000,-0.0009315943,-0.0009315943
0.0001109997,0.0000000000,-0.0004939142,-0.0004939142
0.0001114997,0.0000000000,-0.0001213278,-0.0001213278
0.0001119997,0.0000000000,-0.0000021845,-0.0000021845
0.0001124997,0.0000000000,-0.0001145167,-0.0001145167
0.0001129997,0.0000000000,-0.0003803243,-0.0003803243
0.0001134997,0.0000000000,-0.0006768453,-0.0006768453
0.0001139997,0.0000000000,-0.0007925528,-0.0007925528
0.0001144996,0.0000000000,-0.0006268062,-0.0006268062
0.0001149996,0.0000000000,-0.0003639486,-0.0003639486
0.0001154996,0.0000000000,-0.0002518074,-0.0002518074
0.0001159996,0.0000000000,-0.0002957133,-0.0002957133
0.0001164996,0.0000000000,-0.0003443199,-0.0003443199
0.0001169996,0.0000000000,-0.0003742785,-0.0003742785
0.0001174996,0.0000000000,-0.0004732732,-0.0004732732
0.0001179996,0.0000000000,-0.0005796669,-0.0005796669
0.0001184996,0.0000000000,-0.0005017256,-0.0005017256
0.0001189996,0.0000000000,-0.0002753737,-0.0002753737
0.0001194996,0.0000000000,-0.0002152194,-0.0002152194
0.0001199996,0.0000000000,-0.0004122143,-0.0004122143
0.0001204996,0.0000000000,-0.0005118307,-0.0005118307
0.0001209996,0.0000000000,-0.0003138268,-0.0003138268
0.0001214996,0.0000000000,-0.0001906892,-0.0001906892
0.0001219996,0.0000000000,-0.0004336266,-0.0004336266
0.0001224996,0.0000000000,-0.0006409366,-0.0006409366
0.0001229996,0.0000000000,-0.0003922204,-0.0003922204
0.0001234996,0.0000000000,-0.0000559150,-0.0000559150
0.0001239996,0.0000000000,-0.0001727630,-0.0001727630
0.0001244996,0.0000000000,-0.0005039282,-0.0005039282
0.0001249996,0.0000000000,-0.0005051118,-0.0005051118
0.0001254996,0.0000000000,-0.0002876101,-0.0002876101
0.0001259996,0.0000000000,-0.0002813132,-0.0002813132
0.0001264996,0.0000000000,-0.0003913204,-0.0003913204
0.0001269996,0.0000000000,-0.0002939539,-0.0002939539
0.0001274996,0.0000000000,-0.0001472732,-0.0001472732
0.0001279996,0.0000000000,-0.0002683483,-0.0002683483
0.0001284996,0.0000000000,-0.0004903252,-0.0004903252
0.0001289996,0.0000000000,-0.0004654571,-0.0004654571
0.0001294996,0.0000000000,-0.0002548090,-0.0002548090
0.0001299997,0.0000000000,-0.0001402845,-0.0001402845
0.0001304997,0.0000000000,-0.0001845999,-0.0001845999
0.0001309997,0.0000000000,-0.0002972530,-0.0002972530
0.0001314997,0.0000000000,-0.0004138869,-0.0004138869
0.0001319997,0.0000000000,-0.0004360125,-0.0004360125
0.0001324997,0.0000000000,-0.0002951410,-0.0002951410
0.0001329997,0.0000000000,-0.0001242079,-0.0001242079
0.0001334997,0.0000000000,-0.0001132026,-0.0001132026
0.0001339997,0.0000000000,-0.0002597441,-0.0002597441
0.0001344997,0.0000000000,-0.0004249294,-0.0004249294
0.0001349997,0.0000000000,-0.0004654664,-0.0004654664
0.0001354997,0.0000000000,-0.0002808365,-0.0002808365
0.0001359997,0.0000000000,-0.0000078921,-0.0000078921
0.0001364997,0.0000000000,-0.0000291762,-0.0000291762
0.0001369997,0.0000000000,-0.0003961171,-0.0003961171
0.0001374997,0.0000000000,-0.0005735488,-0.0005735488
0.0001379997,0.0000000000,-0.0002659202,-0.0002659202
0.0001384997,0.0000000000,0.0000201722,0.0000201722
0.0001389997,0.0000000000,-0.0001509735,-0.0001509735
0.0001394997,0.0000000000,-0.0003912444,-0.0003912444
0.0001399997,0.0000000000,-0.0002871446,-0.0002871446
0.0001404997,0.0000000000,-0.0001473682,-0.0001473682
0.0001409997,0.0000000000,-0.0002695433,-0.0002695433
0.0001414997,0.0000000000,-0.0003391053,-0.0003391053
0.0001419997,0.0000000000,-0.0001626788,-0.0001626788
0.0001424997,0.0000000000,-0.0000852605,-0.0000852605
0.0001429998,0.0000000000,-0.0002425114,-0.0002425114
0.0001434998,0.0000000000,-0.0003211265,-0.0003211265
0.0001439998,0.0000000000,-0.0002536374,-0.0002536374
0.0001444998,0.0000000000,-0.0002444175,-0.0002444175
0.0001449998,0.0000000000,-0.0002082319,-0.0002082319
0.0001454998,0.0000000000,-0.0000505832,-0.0000505832
0.0001459998,0.0000000000,-0.0000924381,-0.0000924381
0.0001464998,0.0000000000,-0.0004126262,-0.0004126262
0.0001469998,0.0000000000,-0.0004691570,-0.0004691570
0.0001474998,0.0000000000,-0.0000849472,-0.0000849472
0.0001479998,0.0000000000,0.0001153493,0.0001153493
0.0001484998,0.0000000000,-0.0001721700,-0.0001721700
0.0001489998,0.0000000000,-0.0004287439,-0.0004287439
0.0001494998,0.0000000000,-0.0003240627,-0.0003240627
0.0001499998,0.0000000000,-0.0001493482,-0.0001493482
0.0001504998,0.0000000000,-0.0000888178,-0.0000888178
0.0001509998,0.0000000000,-0.0000633278,-0.0000633278
0.0001514998,0.0000000000,-0.0001645946,-0.0001645946
0.0001519998,0.0000000000,-0.0003846089,-0.0003846089
0.0001524998,0.0000000000,-0.0003549007,-0.0003549007
0.0001529998,0.0000000000,-0.0000357412,-0.0000357412
0.0001534998,0.0000000000,0.0000535975,0.0000535975
0.0001539998,0.0000000000,-0.0002247440,-0.0002247440
0.0001544998,0.0000000000,-0.0003713336,-0.0003713336
0.0001549998,0.0000000000,-0.0002080364,-0.0002080364
0.0001554998,0.0000000000,-0.0000965669,-0.0000965669
0.0001559998,0.0000000000,-0.0001435794,-0.0001435794
0.0001564999,0.0000000000,-0.0001440915,-0.0001440915
0.0001569999,0.0000000000,-0.0001450966,-0.0001450966
0.0001574999,0.0000000000,-0.0002485908,-0.0002485908
0.0001579999,0.0000000000,-0.0002516802,-0.0002516802
0.0001584999,0.0000000000,-0.0000939208,-0.0000939208
0.0001589999,0.0000000000,-0.0000679824,-0.0000679824
0.0001594999,0.0000000000,-0.0002124077,-0.0002124077
0.0001599999,0.0000000000,-0.0002261548,-0.0002261548
0.0001604999,0.0000000000,-0.0001159179,-0.0001159179
0.0001609999,0.0000000000,-0.0001426117,-0.0001426117
0.0001614999,0.0000000000,-0.0002252086,-0.0002252086
0.0001619999,0.0000000000,-0.0001491253,-0.0001491253
0.0001624999,0.0000000000,-0.0000668032,-0.0000668032
0.0001629999,0.0000000000,-0.0001553262,-0.0001553262
0.0001634999,0.0000000000,-0.0002315422,-0.0002315422
0.0001639999,0.0000000000,-0.0001649289,-0.0001649289
0.0001644999,0.0000000000,-0.0001193751,-0.0001193751
0.0001649999,0.0000000000,-0.0001446716,-0.0001446716
0.0001654999,0.0000000000,-0.0001189829,-0.0001189829
0.0001659999,0.0000000000,-0.0001075430,-0.0001075430
0.0001664999,0.0000000000,-0.0002075560,-0.0002075560
0.0001669999,0.0000000000,-0.0002397524,-0.0002397524
0.0001674999,0.0000000000,-0.0000951955,-0.0000951955
0.0001679999,0.0000000000,-0.0000160025,-0.0000160025
0.0001684999,0.0000000000,-0.0001397748,-0.0001397748
0.0001689999,0.0000000000,-0.0002422612,-0.0002422612
0.0001695000,0.0000000000,-0.0001842574,-0.0001842574
0.0001700000,0.0000000000,-0.0001058114,-0.0001058114
0.0001705000,0.0000000000,-0.0000863771,-0.0000863771
0.0001710000,0.0000000000,-0.0000851260,-0.0000851260
0.0001715000,0.0000000000,-0.0001392286,-0.0001392286
0.0001720000,0.0000000000,-0.0002308963,-0.0002308963
0.0001725000,0.0000000000,-0.0001950479,-0.0001950479
0.0001730000,0.0000000000,-0.0000430956,-0.0000430956
0.0001735000,0.0000000000,-0.0000190496,-0.0000190496
0.0001740000,0.0000000000,-0.0001618247,-0.0001618247
0.0001745000,0.0000000000,-0.0002351973,-0.0002351973
0.0001750000,0.0000000000,-0.0001564600,-0.0001564600
0.0001755000,0.0000000000,-0.0000752761,-0.0000752761
0.0001760000,0.0000000000,-0.0000661945,-0.0000661945
0.0001765000,0.0000000000,-0.0000967359,-0.0000967359
0.0001770000,0.0000000000,-0.0001629586,-0.0001629586
0.0001775000,0.0000000000,-0.0002084192,-0.0002084192
0.0001780000,0.0000000000,-0.0001348411,-0.0001348411
0.0001785000,0.0000000000,-0.0000236264,-0.0000236264
0.0001790000,0.0000000000,-0.0000543474,-0.0000543474
0.0001795000,0.0000000000,-0.0001795577,-0.0001795577
0.0001800000,0.0000000000,-0.0002016538,-0.0002016538
0.0001805000,0.0000000000,-0.0001131617,-0.0001131617
0.0001810000,0.0000000000,-0.0000582747,-0.0000582747
0.0001815000,0.0000000000,-0.0000756228,-0.0000756228
0.0001820000,0.0000000000,-0.0001173298,-0.0001173298
0.0001825001,0.0000000000,-0.0001617206,-0.0001617206
0.0001830001,0.0000000000,-0.0001643429,-0.0001643429
0.0001835001,0.0000000000,-0.0000901293,-0.0000901293
0.0001840001,0.0000000000,-0.0000332031,-0.0000332031
0.0001845001,0.0000000000,-0.0000920468,-0.0000920468
0.0001850001,0.0000000000,-0.0001769661,-0.0001769661
