time[s],Transmitted signal[dBSPL],Received signal1[dBSPL],Received signal2[dB],center[dB]
0.0000000000,-0.0099949827,0.0000000000,0.0000000000
0.0000005000,-0.0229087174,0.0000000000,0.0000000000
0.0000010000,-0.0334439017,0.0000000000,0.0000000000
0.0000015000,-0.0402728543,0.0000000000,0.0000000000
0.0000020000,-0.0424708240,0.0000000000,0.0000000000
0.0000025000,-0.0396377705,0.0000000000,0.0000000000
0.0000030000,-0.0319611393,0.0000000000,0.0000000000
0.0000035000,-0.0202111267,0.0000000000,0.0000000000
0.0000040000,-0.0056668525,0.0000000000,0.0000000000
0.0000045000,0.0100198211,0.0000000000,0.0000000000
0.0000050000,0.0250086784,0.0000000000,0.0000000000
0.0000055000,0.0374835096,0.0000000000,0.0000000000
0.0000060000,0.0458682701,0.0000000000,0.0000000000
0.0000065000,0.0490220077,0.0000000000,0.0000000000
0.0000070000,0.0463882275,0.0000000000,0.0000000000
0.0000075000,0.0380809978,0.0000000000,0.0000000000
0.0000080000,0.0248939134,0.0000000000,0.0000000000
0.0000085000,0.0082305241,0.0000000000,0.0000000000
0.0000090000,-0.0100413021,0.0000000000,0.0000000000
0.0000095000,-0.0277930535,0.0000000000,0.0000000000
0.0000100000,-0.0428779796,0.0000000000,0.0000000000
0.0000105000,-0.0533853285,0.0000000000,0.0000000000
0.0000110000,-0.0578745194,0.0000000000,0.0000000000
0.0000115000,-0.0555643030,0.0000000000,0.0000000000
0.0000120000,-0.0464511029,0.0000000000,0.0000000000
0.0000125000,-0.0313410349,0.0000000000,0.0000000000
0.0000130000,-0.0117876017,0.0000000000,0.0000000000
0.0000135000,0.0100595448,0.0000000000,0.0000000000
0.0000140000,0.0316832848,0.0000000000,0.0000000000
0.0000145000,0.0504794717,0.0000000000,0.0000000000
0.0000150000,0.0640599653,0.0000000000,0.0000000000
0.0000155000,0.0705438629,0.0000000000,0.0000000000
0.0000160000,0.0688024312,0.0000000000,0.0000000000
0.0000165000,0.0586279966,0.0000000000,0.0000000000
0.0000170000,0.0408035591,0.0000000000,0.0000000000
0.0000175000,0.0170606859,0.0000000000,0.0000000000
0.0000180000,-0.0100744218,0.0000000000,0.0000000000
0.0000185000,-0.0375349671,0.0000000000,0.0000000000
0.0000190000,-0.0620422848,-0.0000000000,-0.0000000000
0.0000195000,-0.0804766864,-0.0000000000,-0.0000000000
0.0000200000,-0.0902505070,-0.0000000002,-0.0000000002
0.0000205000,-0.0896395743,-0.0000000017,-0.0000000017
0.0000210000,-0.0780358091,-0.0000000123,-0.0000000123
0.0000215000,-0.0560866892,-0.0000000719,-0.0000000719
0.0000220000,-0.0257013645,-0.0000003417,-0.0000003417
0.0000225000,0.0100860642,-0.0000013626,-0.0000013626
0.0000230000,0.0473880433,-0.0000046554,-0.0000046554
0.0000235000,0.0818468779,-0.0000138445,-0.0000138445
0.0000240000,0.1090967655,-0.0000362891,-0.0000362891
0.0000245000,0.1252558231,-0.0000846677,-0.0000846677
0.0000250000,0.1274006516,-0.0001771477,-0.0001771477
0.0000255000,0.1139688045,-0.0003340755,-0.0003340755
0.0000260000,0.0850444809,-0.0005693251,-0.0005693251
0.0000265000,0.0424907058,-0.0008764281,-0.0008764281
0.0000270000,-0.0100943409,-0.0012136052,-0.0012136052
0.0000275000,-0.0676022694,-0.0014963764,-0.0014963764
0.0000280000,-0.1238057613,-0.0016080014,-0.0016080014
0.0000285000,-0.1718885750,-0.0014329182,-0.0014329182
0.0000290000,-0.2050649226,-0.0009065240,-0.0009065240
0.0000295000,-0.2172335386,-0.0000615508,-0.0000615508
0.0000300000,-0.2036044747,0.0009548612,0.0009548612
0.0000305000,-0.1612349898,0.0019123256,0.0019123256
0.0000310000,-0.0894210562,0.0025740729,0.0025740729
0.0000315000,0.0100993235,0.0027873828,0.0027873828
0.0000320000,0.1331564784,0.0025367336,0.0025367336
0.0000325000,0.2733794451,0.0019246524,0.0019246524
0.0000330000,0.4226319790,0.0010949967,0.0010949967
0.0000335000,0.5716199279,0.0001559219,0.0001559219
0.0000340000,0.7106176019,-0.0008464925,-0.0008464925
0.0000345000,0.8302505612,-0.0018947327,-0.0018947327
0.0000350000,0.9222652912,-0.0029290034,-0.0029290034
0.0000355000,0.9802147746,-0.0037802146,-0.0037802146
0.0000360000,1.0000000000,-0.0041739368,-0.0041739368
0.0000365000,0.9802147746,-0.0038569779,-0.0038569779
0.0000370000,0.9222652912,-0.0027800337,-0.0027800337
0.0000375000,0.8302505612,-0.0011596790,-0.0011596790
0.0000380000,0.7106176019,0.0006567115,0.0006567115
0.0000385000,0.5716199279,0.0023646383,0.0023646383
0.0000390000,0.4226319790,0.0037394171,0.0037394171
0.0000395000,0.2733794451,0.0046100826,0.0046100826
0.0000400000,0.1331564784,0.0049199667,0.0049199667
0.0000405000,0.0100993235,0.0047640656,0.0047640656
0.0000410000,-0.0894210562,0.0042244610,0.0042244610
0.0000415000,-0.1612349898,0.0032082803,0.0032082803
0.0000420000,-0.2036044747,0.0016293490,0.0016293490
0.0000425000,-0.2172335386,-0.0002844302,-0.0002844302
0.0000430000,-0.2050649226,-0.0021142489,-0.0021142489
0.0000435000,-0.1718885750,-0.0036831535,-0.0036831535
0.0000440000,-0.1238057613,-0.0050573321,-0.0050573321
0.0000445000,-0.0676022694,-0.0060737808,-0.0060737808
0.0000450000,-0.0100943409,-0.0062703490,-0.0062703490
0.0000455000,0.0424907058,-0.0054592146,-0.0054592146
0.0000460000,0.0850444809,-0.0039846934,-0.0039846934
0.0000465000,0.1139688045,-0.0021937317,-0.0021937317
0.0000470000,0.1274006516,-0.0000623262,-0.0000623262
0.0000475000,0.1252558231,0.0023727228,0.0023727228
0.0000480000,0.1090967655,0.0046521965,0.0046521965
0.0000485000,0.0818468779,0.0063427016,0.0063427016
0.0000490000,0.0473880433,0.0074568074,0.0074568074
0.0000495000,0.0100860642,0.0080361515,0.0080361515
0.0000500000,-0.0257013645,0.0077138338,0.0077138338
0.0000505000,-0.0560866892,0.0061512832,0.0061512832
0.0000510000,-0.0780358091,0.0036011210,0.0036011210
0.0000515000,-0.0896395743,0.0006237205,0.0006237205
0.0000520000,-0.0902505070,-0.0024711690,-0.0024711690
0.0000525000,-0.0804766864,-0.0055497549,-0.0055497549
0.0000530000,-0.0620422848,-0.0083281947,-0.0083281947
0.0000535000,-0.0375349671,-0.0104575697,-0.0104575697
0.0000540000,-0.0100744218,-0.0116791828,-0.0116791828
0.0000545000,0.0170606859,-0.0116765099,-0.0116765099
0.0000550000,0.0408035591,-0.0100975698,-0.0100975698
0.0000555000,0.0586279966,-0.0069510005,-0.0069510005
0.0000560000,0.0688024312,-0.0026976410,-0.0026976410
0.0000565000,0.0705438629,0.0022147386,0.0022147386
0.0000570000,0.0640599653,0.0076396745,0.0076396745
0.0000575000,0.0504794717,0.0134375580,0.0134375580
0.0000580000,0.0316832848,0.0191446766,0.0191446766
0.0000585000,0.0100595448,0.0240819529,0.0240819529
0.0000590000,-0.0117876017,0.0277032536,0.0277032536
0.0000595000,-0.0313410349,0.0298024155,0.0298024155
0.0000600000,-0.0464511029,0.0304099917,0.0304099917
0.0000605000,-0.0555643030,0.0295164995,0.0295164995
0.0000610000,-0.0578745194,0.0270481240,0.0270481240
0.0000615000,-0.0533853285,0.0231985450,0.0231985450
0.0000620000,-0.0428779796,0.0185144749,0.0185144749
0.0000625000,-0.0277930535,0.0134648997,0.0134648997
0.0000630000,-0.0100413021,0.0082599856,0.0082599856
0.0000635000,0.0082305241,0.0033006482,0.0033006482
0.0000640000,0.0248939134,-0.0006707539,-0.0006707539
0.0000645000,0.0380809978,-0.0031888452,-0.0031888452
0.0000650000,0.0463882275,-0.0043892288,-0.0043892288
0.0000655000,0.0490220077,-0.0044633676,-0.0044633676
0.0000660000,0.0458682701,-0.0032965820,-0.0032965820
0.0000665000,0.0374835096,-0.0008778097,-0.0008778097
0.0000670000,0.0250086784,0.0024155118,0.0024155118
0.0000675000,0.0100198211,0.0060770460,0.0060770460
0.0000680000,-0.0056668525,0.0095949527,0.0095949527
0.0000685000,-0.0202111267,0.0123951659,0.0123951659
0.0000690000,-0.0319611393,0.0141302096,0.0141302096
0.0000695000,-0.0396377705,0.0148452222,0.0148452222
0.0000700000,-0.0424708240,0.0144766187,0.0144766187
0.0000705000,-0.0402728543,0.0125950519,0.0125950519
0.0000710000,-0.0334439017,0.0090628713,0.0090628713
0.0000714999,-0.0229087174,0.0044437135,0.0044437135
0.0000719999,-0.0099949827,-0.0006196988,-0.0006196988
0.0000724999,0.0037304156,-0.0058874562,-0.0058874562
0.0000729999,0.0000000000,-0.0111242132,-0.0111242132
0.0000734999,0.0000000000,-0.0158358552,-0.0158358552
0.0000739999,0.0000000000,-0.0196041949,-0.0196041949
0.0000744999,0.0000000000,-0.0221713204,-0.0221713204
0.0000749999,0.0000000000,-0.0232309699,-0.0232309699
0.0000754999,0.0000000000,-0.0226624850,-0.0226624850
0.0000759999,0.0000000000,-0.0207909569,-0.0207909569
0.0000764999,0.0000000000,-0.0179693773,-0.0179693773
0.0000769999,0.0000000000,-0.0142542440,-0.0142542440
0.0000774999,0.0000000000,-0.0098536983,-0.0098536983
0.0000779999,0.0000000000,-0.0053840163,-0.0053840163
0.0000784999,0.0000000000,-0.0013612867,-0.0013612867
0.0000789999,0.0000000000,0.0020450049,0.0020450049
0.0000794999,0.0000000000,0.0046207551,0.0046207551
0.0000799999,0.0000000000,0.0060610347,0.0060610347
0.0000804999,0.0000000000,0.0063527999,0.0063527999
0.0000809999,0.0000000000,0.0056889947,0.0056889947
0.0000814999,0.0000000000,0.0041381270,0.0041381270
0.0000819999,0.0000000000,0.0018391260,0.0018391260
0.0000824999,0.0000000000,-0.0007775421,-0.0007775421
0.0000829999,0.0000000000,-0.0033345039,-0.0033345039
0.0000834999,0.0000000000,-0.0056979991,-0.0056979991
0.0000839999,0.0000000000,-0.0076319892,-0.0076319892
0.0000844999,0.0000000000,-0.0087690856,-0.0087690856
0.0000849999,0.0000000000,-0.0090353293,-0.0090353293
0.0000854999,0.0000000000,-0.0086138025,-0.0086138025
0.0000859998,0.0000000000,-0.0075396011,-0.0075396011
0.0000864998,0.0000000000,-0.0058037126,-0.0058037126
0.0000869998,0.0000000000,-0.0036737747,-0.0036737747
0.0000874998,0.0000000000,-0.0014963923,-0.0014963923
0.0000879998,0.0000000000,0.0005590925,0.0005590925
0.0000884998,0.0000000000,0.0023043784,0.0023043784
0.0000889998,0.0000000000,0.0034680390,0.0034680390
0.0000894998,0.0000000000,0.0039869538,0.0039869538
0.0000899998,0.0000000000,0.0039672358,0.0039672358
0.0000904998,0.0000000000,0.0033670706,0.0033670706
0.0000909998,0.0000000000,0.0021335678,0.0021335678
0.0000914998,0.0000000000,0.0005154124,0.0005154124
0.0000919998,0.0000000000,-0.0011481050,-0.0011481050
0.0000924998,0.0000000000,-0.0027301591,-0.0027301591
0.0000929998,0.0000000000,-0.0041369442,-0.0041369442
0.0000934998,0.0000000000,-0.0051525519,-0.0051525519
0.0000939998,0.0000000000,-0.0056569036,-0.0056569036
0.0000944998,0.0000000000,-0.0056721526,-0.0056721526
0.0000949998,0.0000000000,-0.0051589347,-0.0051589347
0.0000954998,0.0000000000,-0.0041103009,-0.0041103009
0.0000959998,0.0000000000,-0.0027563914,-0.0027563914
0.0000964998,0.0000000000,-0.0013580705,-0.0013580705
0.0000969998,0.0000000000,0.0000172943,0.0000172943
0.0000974998,0.0000000000,0.0012830363,0.0012830363
0.0000979998,0.0000000000,0.0021875019,0.0021875019
0.0000984998,0.0000000000,0.0025590833,0.0025590833
0.0000989998,0.0000000000,0.0024110670,0.0024110670
0.0000994998,0.0000000000,0.0017666306,0.0017666306
0.0000999998,0.0000000000,0.0006901978,0.0006901978
0.0001004997,0.0000000000,-0.0005624107,-0.0005624107
0.0001009997,0.0000000000,-0.0017006927,-0.0017006927
0.0001014997,0.0000000000,-0.0025843841,-0.0025843841
0.0001019997,0.0000000000,-0.0030994359,-0.0030994359
0.0001024997,0.0000000000,-0.0031167450,-0.0031167450
0.0001029997,0.0000000000,-0.0027129604,-0.0027129604
0.0001034997,0.0000000000,-0.0021620307,-0.0021620307
0.0001039997,0.0000000000,-0.0016430583,-0.0016430583
0.0001044997,0.0000000000,-0.0011756304,-0.0011756304
0.0001049997,0.0000000000,-0.0007645904,-0.0007645904
0.0001054997,0.0000000000,-0.0003839314,-0.0003839314
0.0001059997,0.0000000000,0.0000399972,0.0000399972
0.0001064997,0.0000000000,0.0004507510,0.0004507510
0.0001069997,0.0000000000,0.0006376505,0.0006376505
0.0001074997,0.0000000000,0.0004793625,0.0004793625
0.0001079997,0.0000000000,0.0000424407,0.0000424407
0.0001084997,0.0000000000,-0.0005205261,-0.0005205261
0.0001089997,0.0000000000,-0.0009785896,-0.0009785896
0.0001094997,0.0000000000,-0.0010756642,-0.0010756642
0.0001099997,0.0000000000,-0.0007980561,-0.0007980561
0.0001104997,0.0000000000,-0.0004304650,-0.0004304650
0.0001109997,0.0000000000,-0.0002088593,-0.0002088593
0.0001114997,0.0000000000,-0.0001385886,-0.0001385886
0.0001119997,0.0000000000,-0.0002053320,-0.0002053320
0.0001124997,0.0000000000,-0.0004342463,-0.0004342463
0.0001129997,0.0000000000,-0.0006728566,-0.0006728566
0.0001134997,0.0000000000,-0.0006663823,-0.0006663823
0.0001139997,0.0000000000,-0.0004450503,-0.0004450503
0.0001144996,0.0000000000,-0.0003267387,-0.0003267387
0.0001149996,0.0000000000,-0.0004329110,-0.0004329110
0.0001154996,0.0000000000,-0.0004983061,-0.0004983061
0.0001159996,0.0000000000,-0.0003315727,-0.0003315727
0.0001164996,0.0000000000,-0.0001908387,-0.0001908387
0.0001169996,0.0000000000,-0.0003843518,-0.0003843518
0.0001174996,0.0000000000,-0.0006851483,-0.0006851483
0.0001179996,0.0000000000,-0.0006172727,-0.0006172727
0.0001184996,0.0000000000,-0.0002591877,-0.0002591877
0.0001189996,0.0000000000,-0.0001563607,-0.0001563607
0.0001194996,0.0000000000,-0.0003935771,-0.0003935771
0.0001199996,0.0000000000,-0.0004840040,-0.0004840040
0.0001204996,0.0000000000,-0.0003079057,-0.0003079057
0.0001209996,0.0000000000,-0.0003126497,-0.0003126497
0.0001214996,0.0000000000,-0.0005682235,-0.0005682235
0.0001219996,0.0000000000,-0.0005549425,-0.0005549425
0.0001224996,0.0000000000,-0.0001739657,-0.0001739657
0.0001229996,0.0000000000,-0.0000203896,-0.0000203896
0.0001234996,0.0000000000,-0.0003395161,-0.0003395161
0.0001239996,0.0000000000,-0.0006222519,-0.0006222519
0.0001244996,0.0000000000,-0.0005163924,-0.0005163924
0.0001249996,0.0000000000,-0.0002916709,-0.0002916709
0.0001254996,0.0000000000,-0.0002036254,-0.0002036254
0.0001259996,0.0000000000,-0.0001796705,-0.0001796705
0.0001264996,0.0000000000,-0.0002296066,-0.0002296066
0.0001269996,0.0000000000,-0.0004448400,-0.0004448400
0.0001274996,0.0000000000,-0.0005957162,-0.0005957162
0.0001279996,0.0000000000,-0.0003902225,-0.0003902225
0.0001284996,0.0000000000,-0.0000508371,-0.0000508371
0.0001289996,0.0000000000,-0.0000446246,-0.0000446246
0.0001294996,0.0000000000,-0.0003626303,-0.0003626303
0.0001299997,0.0000000000,-0.0005669770,-0.0005669770
0.0001304997,0.0000000000,-0.0004328098,-0.0004328098
0.0001309997,0.0000000000,-0.0001692540,-0.0001692540
0.0001314997,0.0000000000,-0.0000873986,-0.0000873986
0.0001319997,0.0000000000,-0.0002500966,-0.0002500966
0.0001324997,0.0000000000,-0.0004179034,-0.0004179034
0.0001329997,0.0000000000,-0.0003594485,-0.0003594485
0.0001334997,0.0000000000,-0.0002063134,-0.0002063134
0.0001339997,0.0000000000,-0.0002406140,-0.0002406140
0.0001344997,0.0000000000,-0.0003612845,-0.0003612845
0.0001349997,0.0000000000,-0.0002569201,-0.0002569201
0.0001354997,0.0000000000,-0.0000736179,-0.0000736179
0.0001359997,0.0000000000,-0.0002140657,-0.0002140657
0.0001364997,0.0000000000,-0.0005081053,-0.0005081053
0.0001369997,0.0000000000,-0.0004243915,-0.0004243915
0.0001374997,0.0000000000,-0.0000581940,-0.0000581940
0.0001379997,0.0000000000,0.0000054112,0.0000054112
0.0001384997,0.0000000000,-0.0002813399,-0.0002813399
0.0001389997,0.0000000000,-0.0004457765,-0.0004457765
0.0001394997,0.0000000000,-0.0003523405,-0.0003523405
0.0001399997,0.0000000000,-0.0002178579,-0.0002178579
0.0001404997,0.0000000000,-0.0000987722,-0.0000987722
0.0001409997,0.0000000000,-0.0000463058,-0.0000463058
0.0001414997,0.0000000000,-0.0002510078,-0.0002510078
0.0001419997,0.0000000000,-0.0005246695,-0.0005246695
0.0001424997,0.0000000000,-0.0003823038,-0.0003823038
0.0001429998,0.0000000000,0.0000316411,0.0000316411
0.0001434998,0.0000000000,0.0000491910,0.0000491910
0.0001439998,0.0000000000,-0.0003341479,-0.0003341479
0.0001444998,0.0000000000,-0.0004681282,-0.0004681282
0.0001449998,0.0000000000,-0.0002337839,-0.0002337839
0.0001454998,0.0000000000,-0.0000949661,-0.0000949661
0.0001459998,0.0000000000,-0.0001478683,-0.0001478683
0.0001464998,0.0000000000,-0.0001661361,-0.0001661361
0.0001469998,0.0000000000,-0.0002149205,-0.0002149205
0.0001474998,0.0000000000,-0.0003477884,-0.0003477884
0.0001479998,0.0000000000,-0.0002874978,-0.0002874978
0.0001484998,0.0000000000,-0.0000455109,-0.0000455109
0.0001489998,0.0000000000,-0.0000542051,-0.0000542051
0.0001494998,0.0000000000,-0.0003061811,-0.0003061811
0.0001499998,0.0000000000,-0.0003288085,-0.0003288085
0.0001504998,0.0000000000,-0.0001289227,-0.0001289227
0.0001509998,0.0000000000,-0.0001190984,-0.0001190984
0.0001514998,0.0000000000,-0.0002432696,-0.0002432696
0.0001519998,0.0000000000,-0.0001920875,-0.0001920875
0.0001524998,0.0000000000,-0.0001127417,-0.0001127417
0.0001529998,0.0000000000,-0.0002175725,-0.0002175725
0.0001534998,0.0000000000,-0.0002708160,-0.0002708160
0.0001539998,0.0000000000,-0.0001394955,-0.0001394955
0.0001544998,0.0000000000,-0.0001053146,-0.0001053146
0.0001549998,0.0000000000,-0.0002205205,-0.0002205205
0.0001554998,0.0000000000,-0.0002068404,-0.0002068404
0.0001559998,0.0000000000,-0.0001121744,-0.0001121744
0.0001564999,0.0000000000,-0.0001857196,-0.0001857196
0.0001569999,0.0000000000,-0.0002683142,-0.0002683142
0.0001574999,0.0000000000,-0.0001382907,-0.0001382907
0.0001579999,0.0000000000,-0.0000437256,-0.0000437256
0.0001584999,0.0000000000,-0.0001851478,-0.0001851478
0.0001589999,0.0000000000,-0.0002817182,-0.0002817182
0.0001594999,0.0000000000,-0.0001684528,-0.0001684528
0.0001599999,0.0000000000,-0.0000955039,-0.0000955039
0.0001604999,0.0000000000,-0.0001519990,-0.0001519990
0.0001609999,0.0000000000,-0.0001554823,-0.0001554823
0.0001614999,0.0000000000,-0.0001371868,-0.0001371868
0.0001619999,0.0000000000,-0.0002172095,-0.0002172095
0.0001624999,0.0000000000,-0.0002283437,-0.0002283437
0.0001629999,0.0000000000,-0.0000784137,-0.0000784137
0.0001634999,0.0000000000,-0.0000375246,-0.0000375246
0.0001639999,0.0000000000,-0.0002011379,-0.0002011379
0.0001644999,0.0000000000,-0.0002689966,-0.0002689966
0.0001649999,0.0000000000,-0.0001424590,-0.0001424590
0.0001654999,0.0000000000,-0.0000728313,-0.0000728313
0.0001659999,0.0000000000,-0.0001262748,-0.0001262748
0.0001664999,0.0000000000,-0.0001489544,-0.0001489544
0.0001669999,0.0000000000,-0.0001561533,-0.0001561533
0.0001674999,0.0000000000,-0.0002044287,-0.0002044287
0.0001679999,0.0000000000,-0.0001683767,-0.0001683767
0.0001684999,0.0000000000,-0.0000499677,-0.0000499677
0.0001689999,0.0000000000,-0.0000701254,-0.0000701254
0.0001695000,0.0000000000,-0.0002156540,-0.0002156540
0.0001700000,0.0000000000,-0.0002260658,-0.0002260658
0.0001705000,0.0000000000,-0.0001001352,-0.0001001352
0.0001710000,0.0000000000,-0.0000657143,-0.0000657143
0.0001715000,0.0000000000,-0.0001298097,-0.0001298097
0.0001720000,0.0000000000,-0.0001526277,-0.0001526277
0.0001725000,0.0000000000,-0.0001538602,-0.0001538602
0.0001730000,0.0000000000,-0.0001689449,-0.0001689449
0.0001735000,0.0000000000,-0.0001200785,-0.0001200785
0.0001740000,0.0000000000,-0.0000524627,-0.0000524627
0.0001745000,0.0000000000,-0.0001090124,-0.0001090124
0.0001750000,0.0000000000,-0.0002091238,-0.0002091238
0.0001755000,0.0000000000,-0.0001705492,-0.0001705492
0.0001760000,0.0000000000,-0.0000682715,-0.0000682715
0.0001765000,0.0000000000,-0.0000755500,-0.0000755500
0.0001770000,0.0000000000,-0.0001410654,-0.0001410654
0.0001775000,0.0000000000,-0.0001493663,-0.0001493663
0.0001780000,0.0000000000,-0.0001363176,-0.0001363176
0.0001785000,0.0000000000,-0.0001318409,-0.0001318409
0.0001790000,0.0000000000,-0.0000925936,-0.0000925936
0.0001795000,0.0000000000,-0.0000703127,-0.0000703127
0.0001800000,0.0000000000,-0.0001352361,-0.0001352361
0.0001805000,0.0000000000,-0.0001847951,-0.0001847951
0.0001810000,0.0000000000,-0.0001205005,-0.0001205005
0.0001815000,0.0000000000,-0.0000540879,-0.0000540879
0.0001820000,0.0000000000,-0.0000920588,-0.0000920588
0.0001825001,0.0000000000,-0.0001470090,-0.0001470090
0.0001830001,0.0000000000,-0.0001375783,-0.0001375783
0.0001835001,0.0000000000,-0.0001143086,-0.0001143086
0.0001840001,0.0000000000,-0.0001033739,-0.0001033739
0.0001845001,0.0000000000,-0.0000814521,-0.0000814521
0.0001850001,0.0000000000,-0.0000893467,-0.0000893467
