time[s],Transmitted signal[dBSPL],Received signal1[dBSPL],Received signal2[dB],center[dB]
0.0000000000,-0.0099949827,0.0000000000,0.0000000000
0.0000005000,-0.0229087174,0.0000000000,0.0000000000
0.0000010000,-0.0334439017,0.0000000000,0.0000000000
0.0000015000,-0.0402728543,0.0000000000,0.0000000000
0.0000020000,-0.0424708240,0.0000000000,0.0000000000
0.0000025000,-0.0396377705,0.0000000000,0.0000000000
0.0000030000,-0.0319611393,0.0000000000,0.0000000000
0.0000035000,-0.0202111267,0.0000000000,0.0000000000
0.0000040000,-0.0056668525,0.0000000000,0.0000000000
0.0000045000,0.0100198211,0.0000000000,0.0000000000
0.0000050000,0.0250086784,0.0000000000,0.0000000000
0.0000055000,0.0374835096,0.0000000000,0.0000000000
0.0000060000,0.0458682701,0.0000000000,0.0000000000
0.0000065000,0.0490220077,0.0000000000,0.0000000000
0.0000070000,0.0463882275,0.0000000000,0.0000000000
0.0000075000,0.0380809978,0.0000000000,0.0000000000
0.0000080000,0.0248939134,0.0000000000,0.0000000000
0.0000085000,0.0082305241,0.0000000000,0.0000000000
0.0000090000,-0.0100413021,0.0000000000,0.0000000000
0.0000095000,-0.0277930535,0.0000000000,0.0000000000
0.0000100000,-0.0428779796,0.0000000000,0.0000000000
0.0000105000,-0.0533853285,0.0000000000,0.0000000000
0.0000110000,-0.0578745194,0.0000000000,0.0000000000
0.0000115000,-0.0555643030,0.0000000000,0.0000000000
0.0000120000,-0.0464511029,0.0000000000,0.0000000000
0.0000125000,-0.0313410349,0.0000000000,0.0000000000
0.0000130000,-0.0117876017,0.0000000000,0.0000000000
0.0000135000,0.0100595448,0.0000000000,0.0000000000
0.0000140000,0.0316832848,0.0000000000,0.0000000000
0.0000145000,0.0504794717,0.0000000000,0.0000000000
0.0000150000,0.0640599653,0.0000000000,0.0000000000
0.0000155000,0.0705438629,0.0000000000,0.0000000000
0.0000160000,0.0688024312,0.0000000000,0.0000000000
0.0000165000,0.0586279966,0.0000000000,0.0000000000
0.0000170000,0.0408035591,0.0000000000,0.0000000000
0.0000175000,0.0170606859,0.0000000000,0.0000000000
0.0000180000,-0.0100744218,0.0000000000,0.0000000000
0.0000185000,-0.0375349671,-0.0000000000,-0.0000000000
0.0000190000,-0.0620422848,-0.0000000000,-0.0000000000
0.0000195000,-0.0804766864,-0.0000000001,-0.0000000001
0.0000200000,-0.0902505070,-0.0000000015,-0.0000000015
0.0000205000,-0.0896395743,-0.0000000106,-0.0000000106
0.0000210000,-0.0780358091,-0.0000000609,-0.0000000609
0.0000215000,-0.0560866892,-0.0000002846,-0.0000002846
0.0000220000,-0.0257013645,-0.0000011202,-0.0000011202
0.0000225000,0.0100860642,-0.0000037922,-0.0000037922
0.0000230000,0.0473880433,-0.0000112236,-0.0000112236
0.0000235000,0.0818468779,-0.0000294158,-0.0000294158
0.0000240000,0.1090967655,-0.0000689546,-0.0000689546
0.0000245000,0.1252558231,-0.0001456452,-0.0001456452
0.0000250000,0.1274006516,-0.0002785738,-0.0002785738
0.0000255000,0.1139688045,-0.0004837262,-0.0004837262
0.0000260000,0.0850444809,-0.0007625085,-0.0007625085
0.0000265000,0.0424907058,-0.0010875951,-0.0010875951
0.0000270000,-0.0100943409,-0.0013926283,-0.0013926283
0.0000275000,-0.0676022694,-0.0015748772,-0.0015748772
0.0000280000,-0.1238057613,-0.0015179728,-0.0015179728
0.0000285000,-0.1718885750,-0.0011339089,-0.0011339089
0.0000290000,-0.2050649226,-0.0004115755,-0.0004115755
0.0000295000,-0.2172335386,0.0005513630,0.0005513630
0.0000300000,-0.2036044747,0.0015571933,0.0015571933
0.0000305000,-0.1612349898,0.0023656124,0.0023656124
0.0000310000,-0.0894210562,0.0027793380,0.0027793380
0.0000315000,0.0100993235,0.0027149001,0.0027149001
0.0000320000,0.1331564784,0.0022203738,0.0022203738
0.0000325000,0.2733794451,0.0014323943,0.0014323943
0.0000330000,0.4226319790,0.0004981791,0.0004981791
0.0000335000,0.5716199279,-0.0004923583,-0.0004923583
0.0000340000,0.7106176019,-0.0015168122,-0.0015168122
0.0000345000,0.8302505612,-0.0025528849,-0.0025528849
0.0000350000,0.9222652912,-0.0034818701,-0.0034818701
0.0000355000,0.9802147746,-0.0040660473,-0.0040660473
0.0000360000,1.0000000000,-0.0040510157,-0.0040510157
0.0000365000,0.9802147746,-0.0033115349,-0.0033115349
0.0000370000,0.9222652912,-0.0019173452,-0.0019173452
0.0000375000,0.8302505612,-0.0001064019,-0.0001064019
0.0000380000,0.7106176019,0.0017692798,0.0017692798
0.0000385000,0.5716199279,0.0033361600,0.0033361600
0.0000390000,0.4226319790,0.0043641594,0.0043641594
0.0000395000,0.2733794451,0.0048660906,0.0048660906
0.0000400000,0.1331564784,0.0049514384,0.0049514384
0.0000405000,0.0100993235,0.0045888429,0.0045888429
0.0000410000,-0.0894210562,0.0036480920,0.0036480920
0.0000415000,-0.1612349898,0.0021827489,0.0021827489
0.0000420000,-0.2036044747,0.0004694782,0.0004694782
0.0000425000,-0.2172335386,-0.0012949912,-0.0012949912
0.0000430000,-0.2050649226,-0.0030932245,-0.0030932245
0.0000435000,-0.1718885750,-0.0047659995,-0.0047659995
0.0000440000,-0.1238057613,-0.0058851717,-0.0058851717
0.0000445000,-0.0676022694,-0.0061688349,-0.0061688349
0.0000450000,-0.0100943409,-0.0057527530,-0.0057527530
0.0000455000,0.0424907058,-0.0048001474,-0.0048001474
0.0000460000,0.0850444809,-0.0031705226,-0.0031705226
0.0000465000,0.1139688045,-0.0008357742,-0.0008357742
0.0000470000,0.1274006516,0.0016989079,0.0016989079
0.0000475000,0.1252558231,0.0038538356,0.0038538356
0.0000480000,0.1090967655,0.0055948002,0.0055948002
0.0000485000,0.0818468779,0.0071094902,0.0071094902
0.0000490000,0.0473880433,0.0081174541,0.0081174541
0.0000495000,0.0100860642,0.0080564125,0.0080564125
0.0000500000,-0.0257013645,0.0067944601,0.0067944601
0.0000505000,-0.0560866892,0.0046565724,0.0046565724
0.0000510000,-0.0780358091,0.0019132304,0.0019132304
0.0000515000,-0.0896395743,-0.0012676476,-0.0012676476
0.0000520000,-0.0902505070,-0.0045244819,-0.0045244819
0.0000525000,-0.0804766864,-0.0074288854,-0.0074288854
0.0000530000,-0.0620422848,-0.0097806836,-0.0097806836
0.0000535000,-0.0375349671,-0.0114135360,-0.0114135360
0.0000540000,-0.0100744218,-0.0119090583,-0.0119090583
0.0000545000,0.0170606859,-0.0108704623,-0.0108704623
0.0000550000,0.0408035591,-0.0083144251,-0.0083144251
0.0000555000,0.0586279966,-0.0045280233,-0.0045280233
0.0000560000,0.0688024312,0.0002470114,0.0002470114
0.0000565000,0.0705438629,0.0057561509,0.0057561509
0.0000570000,0.0640599653,0.0115780290,0.0115780290
0.0000575000,0.0504794717,0.0172444619,0.0172444619
0.0000580000,0.0316832848,0.0223833062,0.0223833062
0.0000585000,0.0100595448,0.0266434550,0.0266434550
0.0000590000,-0.0117876017,0.0296081640,0.0296081640
0.0000595000,-0.0313410349,0.0308825020,0.0308825020
0.0000600000,-0.0464511029,0.0303020701,0.0303020701
0.0000605000,-0.0555643030,0.0281041823,0.0281041823
0.0000610000,-0.0578745194,0.0247832686,0.0247832686
0.0000615000,-0.0533853285,0.0206310526,0.0206310526
0.0000620000,-0.0428779796,0.0156289041,0.0156289041
0.0000625000,-0.0277930535,0.0100307604,0.0100307604
0.0000630000,-0.0100413021,0.0047055306,0.0047055306
0.0000635000,0.0082305241,0.0004911819,0.0004911819
0.0000640000,0.0248939134,-0.0024675648,-0.0024675648
0.0000645000,0.0380809978,-0.0043412284,-0.0043412284
0.0000650000,0.0463882275,-0.0049947929,-0.0049947929
0.0000655000,0.0490220077,-0.0042008571,-0.0042008571
0.0000660000,0.0458682701,-0.0020899849,-0.0020899849
0.0000665000,0.0374835096,0.0009800335,0.0009800335
0.0000670000,0.0250086784,0.0046225255,0.0046225255
0.0000675000,0.0100198211,0.0082878768,0.0082878768
0.0000680000,-0.0056668525,0.0113930069,0.0113930069
0.0000685000,-0.0202111267,0.0136874644,0.0136874644
0.0000690000,-0.0319611393,0.0150629170,0.0150629170
0.0000695000,-0.0396377705,0.0151407514,0.0151407514
0.0000700000,-0.0424708240,0.0135881128,0.0135881128
0.0000705000,-0.0402728543,0.0106112352,0.0106112352
0.0000710000,-0.0334439017,0.0066177887,0.0066177887
0.0000714999,-0.0229087174,0.0017515761,0.0017515761
0.0000719999,-0.0099949827,-0.0037596049,-0.0037596049
0.0000724999,0.0037304156,-0.0092734937,-0.0092734937
0.0000729999,0.0000000000,-0.0141988844,-0.0141988844
0.0000734999,0.0000000000,-0.0183217023,-0.0183217023
0.0000739999,0.0000000000,-0.0214179680,-0.0214179680
0.0000744999,0.0000000000,-0.0231102966,-0.0231102966
0.0000749999,0.0000000000,-0.0232642889,-0.0232642889
0.0000754999,0.0000000000,-0.0220131651,-0.0220131651
0.0000759999,0.0000000000,-0.0194467995,-0.0194467995
0.0000764999,0.0000000000,-0.0157763995,-0.0157763995
0.0000769999,0.0000000000,-0.0115605835,-0.0115605835
0.0000774999,0.0000000000,-0.0072852736,-0.0072852736
0.0000779999,0.0000000000,-0.0030712830,-0.0030712830
0.0000784999,0.0000000000,0.0008520316,0.0008520316
0.0000789999,0.0000000000,0.0039101858,0.0039101858
0.0000794999,0.0000000000,0.0057326742,0.0057326742
0.0000799999,0.0000000000,0.0064173443,0.0064173443
0.0000804999,0.0000000000,0.0061077760,0.0061077760
0.0000809999,0.0000000000,0.0048477869,0.0048477869
0.0000814999,0.0000000000,0.0028499595,0.0028499595
0.0000819999,0.0000000000,0.0004110588,0.0004110588
0.0000824999,0.0000000000,-0.0022950619,-0.0022950619
0.0000829999,0.0000000000,-0.0049702609,-0.0049702609
0.0000834999,0.0000000000,-0.0070934566,-0.0070934566
0.0000839999,0.0000000000,-0.0083948933,-0.0083948933
0.0000844999,0.0000000000,-0.0090097841,-0.0090097841
0.0000849999,0.0000000000,-0.0089888489,-0.0089888489
0.0000854999,0.0000000000,-0.0081674885,-0.0081674885
0.0000859998,0.0000000000,-0.0065921829,-0.0065921829
0.0000864998,0.0000000000,-0.0045739212,-0.0045739212
0.0000869998,0.0000000000,-0.0023604422,-0.0023604422
0.0000874998,0.0000000000,-0.0001644618,-0.0001644618
0.0000879998,0.0000000000,0.0016954599,0.0016954599
0.0000884998,0.0000000000,0.0030327367,0.0030327367
0.0000889998,0.0000000000,0.0038853241,0.0038853241
0.0000894998,0.0000000000,0.0041854829,0.0041854829
0.0000899998,0.0000000000,0.0037414376,0.0037414376
0.0000904998,0.0000000000,0.0026295693,0.0026295693
0.0000909998,0.0000000000,0.0011725785,0.0011725785
0.0000914998,0.0000000000,-0.0004419625,-0.0004419625
0.0000919998,0.0000000000,-0.0021297573,-0.0021297573
0.0000924998,0.0000000000,-0.0036665797,-0.0036665797
0.0000929998,0.0000000000,-0.0048317472,-0.0048317472
0.0000934998,0.0000000000,-0.0055728639,-0.0055728639
0.0000939998,0.0000000000,-0.0058190352,-0.0058190352
0.0000944998,0.0000000000,-0.0054489090,-0.0054489090
0.0000949998,0.0000000000,-0.0045488849,-0.0045488849
0.0000954998,0.0000000000,-0.0033608654,-0.0033608654
0.0000959998,0.0000000000,-0.0019920426,-0.0019920426
0.0000964998,0.0000000000,-0.0005012462,-0.0005012462
0.0000969998,0.0000000000,0.0008743900,0.0008743900
0.0000974998,0.0000000000,0.0018850975,0.0018850975
0.0000979998,0.0000000000,0.0024624933,0.0024624933
0.0000984998,0.0000000000,0.0025616563,0.0025616563
0.0000989998,0.0000000000,0.0020977026,0.0020977026
0.0000994998,0.0000000000,0.0011566507,0.0011566507
0.0000999998,0.0000000000,-0.0000134336,-0.0000134336
0.0001004997,0.0000000000,-0.0012223184,-0.0012223184
0.0001009997,0.0000000000,-0.0023005055,-0.0023005055
0.0001014997,0.0000000000,-0.0029917525,-0.0029917525
0.0001019997,0.0000000000,-0.0031544680,-0.0031544680
0.0001024997,0.0000000000,-0.0029128937,-0.0029128937
0.0001029997,0.0000000000,-0.0024532960,-0.0024532960
0.0001034997,0.0000000000,-0.0018836344,-0.0018836344
0.0001039997,0.0000000000,-0.0013337964,-0.0013337964
0.0001044997,0.0000000000,-0.0009105129,-0.0009105129
0.0001049997,0.0000000000,-0.0005469273,-0.0005469273
0.0001054997,0.0000000000,-0.0001318363,-0.0001318363
0.0001059997,0.0000000000,0.0002806978,0.0002806978
0.0001064997,0.0000000000,0.0005486510,0.0005486510
0.0001069997,0.0000000000,0.0005768515,0.0005768515
0.0001074997,0.0000000000,0.0002991942,0.0002991942
0.0001079997,0.0000000000,-0.0002463764,-0.0002463764
0.0001084997,0.0000000000,-0.0007979948,-0.0007979948
0.0001089997,0.0000000000,-0.0010585566,-0.0010585566
0.0001094997,0.0000000000,-0.0009781420,-0.0009781420
0.0001099997,0.0000000000,-0.0006872818,-0.0006872818
0.0001104997,0.0000000000,-0.0003178384,-0.0003178384
0.0001109997,0.0000000000,-0.0000548716,-0.0000548716
0.0001114997,0.0000000000,-0.0001050049,-0.0001050049
0.0001119997,0.0000000000,-0.0004091956,-0.0004091956
0.0001124997,0.0000000000,-0.0006303488,-0.0006303488
0.0001129997,0.0000000000,-0.0005910834,-0.0005910834
0.0001134997,0.0000000000,-0.0004807629,-0.0004807629
0.0001139997,0.0000000000,-0.0004911057,-0.0004911057
0.0001144996,0.0000000000,-0.0005089304,-0.0005089304
0.0001149996,0.0000000000,-0.0003717115,-0.0003717115
0.0001154996,0.0000000000,-0.0002213438,-0.0002213438
0.0001159996,0.0000000000,-0.0003092614,-0.0003092614
0.0001164996,0.0000000000,-0.0005356395,-0.0005356395
0.0001169996,0.0000000000,-0.0005531517,-0.0005531517
0.0001174996,0.0000000000,-0.0003621554,-0.0003621554
0.0001179996,0.0000000000,-0.0003387308,-0.0003387308
0.0001184996,0.0000000000,-0.0005254377,-0.0005254377
0.0001189996,0.0000000000,-0.0004863259,-0.0004863259
0.0001194996,0.0000000000,-0.0001503027,-0.0001503027
0.0001199996,0.0000000000,-0.0000874822,-0.0000874822
0.0001204996,0.0000000000,-0.0005118060,-0.0005118060
0.0001209996,0.0000000000,-0.0007856381,-0.0007856381
0.0001214996,0.0000000000,-0.0004679613,-0.0004679613
0.0001219996,0.0000000000,-0.0000632876,-0.0000632876
0.0001224996,0.0000000000,-0.0001262139,-0.0001262139
0.0001229996,0.0000000000,-0.0004050826,-0.0004050826
0.0001234996,0.0000000000,-0.0004681344,-0.0004681344
0.0001239996,0.0000000000,-0.0004156601,-0.0004156601
0.0001244996,0.0000000000,-0.0004297636,-0.0004297636
0.0001249996,0.0000000000,-0.0003503196,-0.0003503196
0.0001254996,0.0000000000,-0.0001523732,-0.0001523732
0.0001259996,0.0000000000,-0.0001536615,-0.0001536615
0.0001264996,0.0000000000,-0.0004065115,-0.0004065115
0.0001269996,0.0000000000,-0.0005307869,-0.0005307869
0.0001274996,0.0000000000,-0.0003711211,-0.0003711211
0.0001279996,0.0000000000,-0.0002132042,-0.0002132042
0.0001284996,0.0000000000,-0.0002308653,-0.0002308653
0.0001289996,0.0000000000,-0.0002775061,-0.0002775061
0.0001294996,0.0000000000,-0.0002736605,-0.0002736605
0.0001299997,0.0000000000,-0.0003189095,-0.0003189095
0.0001304997,0.0000000000,-0.0004076771,-0.0004076771
0.0001309997,0.0000000000,-0.0003942902,-0.0003942902
0.0001314997,0.0000000000,-0.0002353635,-0.0002353635
0.0001319997,0.0000000000,-0.0000795394,-0.0000795394
0.0001324997,0.0000000000,-0.0001351888,-0.0001351888
0.0001329997,0.0000000000,-0.0004203491,-0.0004203491
0.0001334997,0.0000000000,-0.0006000854,-0.0006000854
0.0001339997,0.0000000000,-0.0003421470,-0.0003421470
0.0001344997,0.0000000000,0.0000772515,0.0000772515
0.0001349997,0.0000000000,0.0000309896,0.0000309896
0.0001354997,0.0000000000,-0.0004492768,-0.0004492768
0.0001359997,0.0000000000,-0.0006357034,-0.0006357034
0.0001364997,0.0000000000,-0.0002823963,-0.0002823963
0.0001369997,0.0000000000,0.0000182512,0.0000182512
0.0001374997,0.0000000000,-0.0001065119,-0.0001065119
0.0001379997,0.0000000000,-0.0003205644,-0.0003205644
0.0001384997,0.0000000000,-0.0003500819,-0.0003500819
0.0001389997,0.0000000000,-0.0003260823,-0.0003260823
0.0001394997,0.0000000000,-0.0002731756,-0.0002731756
0.0001399997,0.0000000000,-0.0001166560,-0.0001166560
0.0001404997,0.0000000000,-0.0000812456,-0.0000812456
0.0001409997,0.0000000000,-0.0003026542,-0.0003026542
0.0001414997,0.0000000000,-0.0004139877,-0.0004139877
0.0001419997,0.0000000000,-0.0002098022,-0.0002098022
0.0001424997,0.0000000000,-0.0000893359,-0.0000893359
0.0001429998,0.0000000000,-0.0002508218,-0.0002508218
0.0001434998,0.0000000000,-0.0003020726,-0.0003020726
0.0001439998,0.0000000000,-0.0001305131,-0.0001305131
0.0001444998,0.0000000000,-0.0001432140,-0.0001432140
0.0001449998,0.0000000000,-0.0003520724,-0.0003520724
0.0001454998,0.0000000000,-0.0003176920,-0.0003176920
0.0001459998,0.0000000000,-0.0000855707,-0.0000855707
0.0001464998,0.0000000000,-0.0000867767,-0.0000867767
0.0001469998,0.0000000000,-0.0002603860,-0.0002603860
0.0001474998,0.0000000000,-0.0002739687,-0.0002739687
0.0001479998,0.0000000000,-0.0002169296,-0.0002169296
0.0001484998,0.0000000000,-0.0002451035,-0.0002451035
0.0001489998,0.0000000000,-0.0001748583,-0.0001748583
0.0001494998,0.0000000000,-0.0000311667,-0.0000311667
0.0001499998,0.0000000000,-0.0001525352,-0.0001525352
0.0001504998,0.0000000000,-0.0004111634,-0.0004111634
0.0001509998,0.0000000000,-0.0003237730,-0.0003237730
0.0001514998,0.0000000000,-0.0000137477,-0.0000137477
0.0001519998,0.0000000000,-0.0000087879,-0.0000087879
0.0001524998,0.0000000000,-0.0002518267,-0.0002518267
0.0001529998,0.0000000000,-0.0003164894,-0.0003164894
0.0001534998,0.0000000000,-0.0002179686,-0.0002179686
0.0001539998,0.0000000000,-0.0001693948,-0.0001693948
0.0001544998,0.0000000000,-0.0001082678,-0.0001082678
0.0001549998,0.0000000000,-0.0000530668,-0.0000530668
0.0001554998,0.0000000000,-0.0001999410,-0.0001999410
0.0001559998,0.0000000000,-0.0003757550,-0.0003757550
0.0001564999,0.0000000000,-0.0002330691,-0.0002330691
0.0001569999,0.0000000000,0.0000188027,0.0000188027
0.0001574999,0.0000000000,-0.0000473810,-0.0000473810
0.0001579999,0.0000000000,-0.0002749019,-0.0002749019
0.0001584999,0.0000000000,-0.0002814246,-0.0002814246
0.0001589999,0.0000000000,-0.0001551818,-0.0001551818
0.0001594999,0.0000000000,-0.0001219529,-0.0001219529
0.0001599999,0.0000000000,-0.0001125719,-0.0001125719
0.0001604999,0.0000000000,-0.0001019629,-0.0001019629
0.0001609999,0.0000000000,-0.0002081592,-0.0002081592
0.0001614999,0.0000000000,-0.0002913513,-0.0002913513
0.0001619999,0.0000000000,-0.0001501836,-0.0001501836
0.0001624999,0.0000000000,-0.0000042805,-0.0000042805
0.0001629999,0.0000000000,-0.0001142971,-0.0001142971
0.0001634999,0.0000000000,-0.0002652346,-0.0002652346
0.0001639999,0.0000000000,-0.0002064586,-0.0002064586
0.0001644999,0.0000000000,-0.0001027819,-0.0001027819
0.0001649999,0.0000000000,-0.0001184783,-0.0001184783
0.0001654999,0.0000000000,-0.0001372624,-0.0001372624
0.0001659999,0.0000000000,-0.0001264583,-0.0001264583
0.0001664999,0.0000000000,-0.0001834123,-0.0001834123
0.0001669999,0.0000000000,-0.0002124653,-0.0002124653
0.0001674999,0.0000000000,-0.0001073910,-0.0001073910
0.0001679999,0.0000000000,-0.0000488954,-0.0000488954
0.0001684999,0.0000000000,-0.0001570066,-0.0001570066
0.0001689999,0.0000000000,-0.0002245724,-0.0002245724
0.0001695000,0.0000000000,-0.0001385269,-0.0001385269
0.0001700000,0.0000000000,-0.0000838182,-0.0000838182
0.0001705000,0.0000000000,-0.0001330863,-0.0001330863
0.0001710000,0.0000000000,-0.0001483090,-0.0001483090
0.0001715000,0.0000000000,-0.0001248869,-0.0001248869
0.0001720000,0.0000000000,-0.0001527735,-0.0001527735
0.0001725000,0.0000000000,-0.0001604221,-0.0001604221
0.0001730000,0.0000000000,-0.0000935847,-0.0000935847
0.0001735000,0.0000000000,-0.0000851749,-0.0000851749
0.0001740000,0.0000000000,-0.0001673030,-0.0001673030
0.0001745000,0.0000000000,-0.0001770174,-0.0001770174
0.0001750000,0.0000000000,-0.0000980325,-0.0000980325
0.0001755000,0.0000000000,-0.0000871257,-0.0000871257
0.0001760000,0.0000000000,-0.0001417877,-0.0001417877
0.0001765000,0.0000000000,-0.0001407364,-0.0001407364
0.0001770000,0.0000000000,-0.0001136871,-0.0001136871
0.0001775000,0.0000000000,-0.0001317425,-0.0001317425
0.0001780000,0.0000000000,-0.0001312284,-0.0001312284
0.0001785000,0.0000000000,-0.0000897450,-0.0000897450
0.0001790000,0.0000000000,-0.0001031749,-0.0001031749
0.0001795000,0.0000000000,-0.0001581984,-0.0001581984
0.0001800000,0.0000000000,-0.0001401295,-0.0001401295
0.0001805000,0.0000000000,-0.0000819525,-0.0000819525
0.0001810000,0.0000000000,-0.0000946915,-0.0000946915
0.0001815000,0.0000000000,-0.0001366984,-0.0001366984
0.0001820000,0.0000000000,-0.0001243606,-0.0001243606
0.0001825001,0.0000000000,-0.0001057195,-0.0001057195
0.0001830001,0.0000000000,-0.0001213826,-0.0001213826
0.0001835001,0.0000000000,-0.0001131076,-0.0001131076
0.0001840001,0.0000000000,-0.0000845836,-0.0000845836
0.0001845001,0.0000000000,-0.0001069796,-0.0001069796
0.0001850001,0.0000000000,-0.0001445036,-0.0001445036
