time[s],Transmitted signal[dBSPL],Received signal1[dBSPL],Received signal2[dB],center[dB]
0.0000000000,-0.0099949827,0.0000000000,0.0000000000
0.0000005000,-0.0229087174,0.0000000000,0.0000000000
0.0000010000,-0.0334439017,0.0000000000,0.0000000000
0.0000015000,-0.0402728543,0.0000000000,0.0000000000
0.0000020000,-0.0424708240,0.0000000000,0.0000000000
0.0000025000,-0.0396377705,0.0000000000,0.0000000000
0.0000030000,-0.0319611393,0.0000000000,0.0000000000
0.0000035000,-0.0202111267,0.0000000000,0.0000000000
0.0000040000,-0.0056668525,0.0000000000,0.0000000000
0.0000045000,0.0100198211,0.0000000000,0.0000000000
0.0000050000,0.0250086784,0.0000000000,0.0000000000
0.0000055000,0.0374835096,0.0000000000,0.0000000000
0.0000060000,0.0458682701,0.0000000000,0.0000000000
0.0000065000,0.0490220077,0.0000000000,0.0000000000
0.0000070000,0.0463882275,0.0000000000,0.0000000000
0.0000075000,0.0380809978,0.0000000000,0.0000000000
0.0000080000,0.0248939134,0.0000000000,0.0000000000
0.0000085000,0.0082305241,0.0000000000,0.0000000000
0.0000090000,-0.0100413021,0.0000000000,0.0000000000
0.0000095000,-0.0277930535,0.0000000000,0.0000000000
0.0000100000,-0.0428779796,0.0000000000,0.0000000000
0.0000105000,-0.0533853285,0.0000000000,0.0000000000
0.0000110000,-0.0578745194,0.0000000000,0.0000000000
0.0000115000,-0.0555643030,0.0000000000,0.0000000000
0.0000120000,-0.0464511029,0.0000000000,0.0000000000
0.0000125000,-0.0313410349,0.0000000000,0.0000000000
0.0000130000,-0.0117876017,0.0000000000,0.0000000000
0.0000135000,0.0100595448,0.0000000000,0.0000000000
0.0000140000,0.0316832848,0.0000000000,0.0000000000
0.0000145000,0.0504794717,0.0000000000,0.0000000000
0.0000150000,0.0640599653,0.0000000000,0.0000000000
0.0000155000,0.0705438629,0.0000000000,0.0000000000
0.0000160000,0.0688024312,0.0000000000,0.0000000000
0.0000165000,0.0586279966,0.0000000000,0.0000000000
0.0000170000,0.0408035591,0.0000000000,0.0000000000
0.0000175000,0.0170606859,0.0000000000,0.0000000000
0.0000180000,-0.0100744218,0.0000000000,0.0000000000
0.0000185000,-0.0375349671,0.0000000000,0.0000000000
0.0000190000,-0.0620422848,0.0000000000,0.0000000000
0.0000195000,-0.0804766864,0.0000000000,0.0000000000
0.0000200000,-0.0902505070,-0.0000000000,-0.0000000000
0.0000205000,-0.0896395743,-0.0000000000,-0.0000000000
0.0000210000,-0.0780358091,-0.0000000006,-0.0000000006
0.0000215000,-0.0560866892,-0.0000000059,-0.0000000059
0.0000220000,-0.0257013645,-0.0000000458,-0.0000000458
0.0000225000,0.0100860642,-0.0000002746,-0.0000002746
0.0000230000,0.0473880433,-0.0000013331,-0.0000013331
0.0000235000,0.0818468779,-0.0000053726,-0.0000053726
0.0000240000,0.1090967655,-0.0000183033,-0.0000183033
0.0000245000,0.1252558231,-0.0000533924,-0.0000533924
0.0000250000,0.1274006516,-0.0001345853,-0.0001345853
0.0000255000,0.1139688045,-0.0002949562,-0.0002949562
0.0000260000,0.0850444809,-0.0005640053,-0.0005640053
0.0000265000,0.0424907058,-0.0009416095,-0.0009416095
0.0000270000,-0.0100943409,-0.0013682462,-0.0013682462
0.0000275000,-0.0676022694,-0.0017138902,-0.0017138902
0.0000280000,-0.1238057613,-0.0018075086,-0.0018075086
0.0000285000,-0.1718885750,-0.0015073967,-0.0015073967
0.0000290000,-0.2050649226,-0.0007816482,-0.0007816482
0.0000295000,-0.2172335386,0.0002473473,0.0002473473
0.0000300000,-0.2036044747,0.0013274119,0.0013274119
0.0000305000,-0.1612349898,0.0021705576,0.0021705576
0.0000310000,-0.0894210562,0.0025781926,0.0025781926
0.0000315000,0.0100993235,0.0025250162,0.0025250162
0.0000320000,0.1331564784,0.0021305191,0.0021305191
0.0000325000,0.2733794451,0.0015248846,0.0015248846
0.0000330000,0.4226319790,0.0007328944,0.0007328944
0.0000335000,0.5716199279,-0.0002884855,-0.0002884855
0.0000340000,0.7106176019,-0.0014890126,-0.0014890126
0.0000345000,0.8302505612,-0.0026359588,-0.0026359588
0.0000350000,0.9222652912,-0.0034127873,-0.0034127873
0.0000355000,0.9802147746,-0.0035851730,-0.0035851730
0.0000360000,1.0000000000,-0.0030736243,-0.0030736243
0.0000365000,0.9802147746,-0.0019696439,-0.0019696439
0.0000370000,0.9222652912,-0.0005743835,-0.0005743835
0.0000375000,0.8302505612,0.0006814048,0.0006814048
0.0000380000,0.7106176019,0.0015562354,0.0015562354
0.0000385000,0.5716199279,0.0022300053,0.0022300053
0.0000390000,0.4226319790,0.0030144504,0.0030144504
0.0000395000,0.2733794451,0.0038141329,0.0038141329
0.0000400000,0.1331564784,0.0041306680,0.0041306680
0.0000405000,0.0100993235,0.0036804834,0.0036804834
0.0000410000,-0.0894210562,0.0027083894,0.0027083894
0.0000415000,-0.1612349898,0.0015360198,0.0015360198
0.0000420000,-0.2036044747,0.0001550379,0.0001550379
0.0000425000,-0.2172335386,-0.0014432272,-0.0014432272
0.0000430000,-0.2050649226,-0.0028829176,-0.0028829176
0.0000435000,-0.1718885750,-0.0037830756,-0.0037830756
0.0000440000,-0.1238057613,-0.0042715520,-0.0042715520
0.0000445000,-0.0676022694,-0.0046345685,-0.0046345685
0.0000450000,-0.0100943409,-0.0046460652,-0.0046460652
0.0000455000,0.0424907058,-0.0038011419,-0.0038011419
0.0000460000,0.0850444809,-0.0021350952,-0.0021350952
0.0000465000,0.1139688045,-0.0002596453,-0.0002596453
0.0000470000,0.1274006516,0.0014186518,0.0014186518
0.0000475000,0.1252558231,0.0030055544,0.0030055544
0.0000480000,0.1090967655,0.0045878887,0.0045878887
0.0000485000,0.0818468779,0.0058585359,0.0058585359
0.0000490000,0.0473880433,0.0064163059,0.0064163059
0.0000495000,0.0100860642,0.0061377813,0.0061377813
0.0000500000,-0.0257013645,0.0051438436,0.0051438436
0.0000505000,-0.0560866892,0.0035876660,0.0035876660
0.0000510000,-0.0780358091,0.0015469501,0.0015469501
0.0000515000,-0.0896395743,-0.0009215507,-0.0009215507
0.0000520000,-0.0902505070,-0.0035953019,-0.0035953019
0.0000525000,-0.0804766864,-0.0060279220,-0.0060279220
0.0000530000,-0.0620422848,-0.0078454847,-0.0078454847
0.0000535000,-0.0375349671,-0.0089865802,-0.0089865802
0.0000540000,-0.0100744218,-0.0094170934,-0.0094170934
0.0000545000,0.0170606859,-0.0088267727,-0.0088267727
0.0000550000,0.0408035591,-0.0069695222,-0.0069695222
0.0000555000,0.0586279966,-0.0040687942,-0.0040687942
0.0000560000,0.0688024312,-0.0004900016,-0.0004900016
0.0000565000,0.0705438629,0.0036915203,0.0036915203
0.0000570000,0.0640599653,0.0083768098,0.0083768098
0.0000575000,0.0504794717,0.0130733699,0.0130733699
0.0000580000,0.0316832848,0.0172928646,0.0172928646
0.0000585000,0.0100595448,0.0209308323,0.0209308323
0.0000590000,-0.0117876017,0.0238725003,0.0238725003
0.0000595000,-0.0313410349,0.0257146042,0.0257146042
0.0000600000,-0.0464511029,0.0262498613,0.0262498613
0.0000605000,-0.0555643030,0.0257202405,0.0257202405
0.0000610000,-0.0578745194,0.0243259389,0.0243259389
0.0000615000,-0.0533853285,0.0220473465,0.0220473465
0.0000620000,-0.0428779796,0.0191071201,0.0191071201
0.0000625000,-0.0277930535,0.0159874856,0.0159874856
0.0000630000,-0.0100413021,0.0129242204,0.0129242204
0.0000635000,0.0082305241,0.0099835573,0.0099835573
0.0000640000,0.0248939134,0.0075266287,0.0075266287
0.0000645000,0.0380809978,0.0059427205,0.0059427205
0.0000650000,0.0463882275,0.0051160804,0.0051160804
0.0000655000,0.0490220077,0.0047552600,0.0047552600
0.0000660000,0.0458682701,0.0049235565,0.0049235565
0.0000665000,0.0374835096,0.0056923060,0.0056923060
0.0000670000,0.0250086784,0.0066949110,0.0066949110
0.0000675000,0.0100198211,0.0075042420,0.0075042420
0.0000680000,-0.0056668525,0.0079902168,0.0079902168
0.0000685000,-0.0202111267,0.0079983650,0.0079983650
0.0000690000,-0.0319611393,0.0072368500,0.0072368500
0.0000695000,-0.0396377705,0.0056784875,0.0056784875
0.0000700000,-0.0424708240,0.0035179262,0.0035179262
0.0000705000,-0.0402728543,0.0007268947,0.0007268947
0.0000710000,-0.0334439017,-0.0027632948,-0.0027632948
0.0000714999,-0.0229087174,-0.0065846201,-0.0065846201
0.0000719999,-0.0099949827,-0.0102128545,-0.0102128545
0.0000724999,0.0037304156,-0.0134749226,-0.0134749226
0.0000729999,0.0000000000,-0.0163031090,-0.0163031090
0.0000734999,0.0000000000,-0.0183768179,-0.0183768179
0.0000739999,0.0000000000,-0.0194259211,-0.0194259211
0.0000744999,0.0000000000,-0.0194741264,-0.0194741264
0.0000749999,0.0000000000,-0.0185413472,-0.0185413472
0.0000754999,0.0000000000,-0.0165897906,-0.0165897906
0.0000759999,0.0000000000,-0.0138614168,-0.0138614168
0.0000764999,0.0000000000,-0.0107672028,-0.0107672028
0.0000769999,0.0000000000,-0.0074845748,-0.0074845748
0.0000774999,0.0000000000,-0.0041193720,-0.0041193720
0.0000779999,0.0000000000,-0.0010478769,-0.0010478769
0.0000784999,0.0000000000,0.0013485351,0.0013485351
0.0000789999,0.0000000000,0.0030076401,0.0030076401
0.0000794999,0.0000000000,0.0039318753,0.0039318753
0.0000799999,0.0000000000,0.0039998475,0.0039998475
0.0000804999,0.0000000000,0.0032521707,0.0032521707
0.0000809999,0.0000000000,0.0019512409,0.0019512409
0.0000814999,0.0000000000,0.0002662987,0.0002662987
0.0000819999,0.0000000000,-0.0017043334,-0.0017043334
0.0000824999,0.0000000000,-0.0036709944,-0.0036709944
0.0000829999,0.0000000000,-0.0053111054,-0.0053111054
0.0000834999,0.0000000000,-0.0065332358,-0.0065332358
0.0000839999,0.0000000000,-0.0072894436,-0.0072894436
0.0000844999,0.0000000000,-0.0074126525,-0.0074126525
0.0000849999,0.0000000000,-0.0068754428,-0.0068754428
0.0000854999,0.0000000000,-0.0058790096,-0.0058790096
0.0000859998,0.0000000000,-0.0045580538,-0.0045580538
0.0000864998,0.0000000000,-0.0029443391,-0.0029443391
0.0000869998,0.0000000000,-0.0012261311,-0.0012261311
0.0000874998,0.0000000000,0.0003106189,0.0003106189
0.0000879998,0.0000000000,0.0015309447,0.0015309447
0.0000884998,0.0000000000,0.0023751725,0.0023751725
0.0000889998,0.0000000000,0.0027261446,0.0027261446
0.0000894998,0.0000000000,0.0025646954,0.0025646954
0.0000899998,0.0000000000,0.0020177276,0.0020177276
0.0000904998,0.0000000000,0.0011412543,0.0011412543
0.0000909998,0.0000000000,-0.0000648228,-0.0000648228
0.0000914998,0.0000000000,-0.0014170251,-0.0014170251
0.0000919998,0.0000000000,-0.0026270291,-0.0026270291
0.0000924998,0.0000000000,-0.0035735003,-0.0035735003
0.0000929998,0.0000000000,-0.0042527858,-0.0042527858
0.0000934998,0.0000000000,-0.0045962250,-0.0045962250
0.0000939998,0.0000000000,-0.0045380308,-0.0045380308
0.0000944998,0.0000000000,-0.0041001169,-0.0041001169
0.0000949998,0.0000000000,-0.0033075614,-0.0033075614
0.0000954998,0.0000000000,-0.0022186367,-0.0022186367
0.0000959998,0.0000000000,-0.0010433786,-0.0010433786
0.0000964998,0.0000000000,-0.0000072219,-0.0000072219
0.0000969998,0.0000000000,0.0008477353,0.0008477353
0.0000974998,0.0000000000,0.0015305072,0.0015305072
0.0000979998,0.0000000000,0.0019007110,0.0019007110
0.0000984998,0.0000000000,0.0017819821,0.0017819821
0.0000989998,0.0000000000,0.0011487660,0.0011487660
0.0000994998,0.0000000000,0.0001136649,0.0001136649
0.0000999998,0.0000000000,-0.0011110487,-0.0011110487
0.0001004997,0.0000000000,-0.0022207170,-0.0022207170
0.0001009997,0.0000000000,-0.0029601902,-0.0029601902
0.0001014997,0.0000000000,-0.0032529954,-0.0032529954
0.0001019997,0.0000000000,-0.0031085692,-0.0031085692
0.0001024997,0.0000000000,-0.0025466061,-0.0025466061
0.0001029997,0.0000000000,-0.0017245504,-0.0017245504
0.0001034997,0.0000000000,-0.0009574482,-0.0009574482
0.0001039997,0.0000000000,-0.0004651036,-0.0004651036
0.0001044997,0.0000000000,-0.0001978124,-0.0001978124
0.0001049997,0.0000000000,0.0000304474,0.0000304474
0.0001054997,0.0000000000,0.0003073766,0.0003073766
0.0001059997,0.0000000000,0.0005111439,0.0005111439
0.0001064997,0.0000000000,0.0004027441,0.0004027441
0.0001069997,0.0000000000,-0.0000966221,-0.0000966221
0.0001074997,0.0000000000,-0.0007241138,-0.0007241138
0.0001079997,0.0000000000,-0.0010850343,-0.0010850343
0.0001084997,0.0000000000,-0.0010110836,-0.0010110836
0.0001089997,0.0000000000,-0.0006161107,-0.0006161107
0.0001094997,0.0000000000,-0.0001430021,-0.0001430021
0.0001099997,0.0000000000,0.0000961929,0.0000961929
0.0001104997,0.0000000000,-0.0001382662,-0.0001382662
0.0001109997,0.0000000000,-0.0006742975,-0.0006742975
0.0001114997,0.0000000000,-0.0009470193,-0.0009470193
0.0001119997,0.0000000000,-0.0006609441,-0.0006609441
0.0001124997,0.0000000000,-0.0002283878,-0.0002283878
0.0001129997,0.0000000000,-0.0001994447,-0.0001994447
0.0001134997,0.0000000000,-0.0004689324,-0.0004689324
0.0001139997,0.0000000000,-0.0005241110,-0.0005241110
0.0001144996,0.0000000000,-0.0003343361,-0.0003343361
0.0001149996,0.0000000000,-0.0003619987,-0.0003619987
0.0001154996,0.0000000000,-0.0006560482,-0.0006560482
0.0001159996,0.0000000000,-0.0006665132,-0.0006665132
0.0001164996,0.0000000000,-0.0002266749,-0.0002266749
0.0001169996,0.0000000000,0.0000184666,0.0000184666
0.0001174996,0.0000000000,-0.0003624727,-0.0003624727
0.0001179996,0.0000000000,-0.0008118096,-0.0008118096
0.0001184996,0.0000000000,-0.0006551518,-0.0006551518
0.0001189996,0.0000000000,-0.0001683941,-0.0001683941
0.0001194996,0.0000000000,-0.0000660283,-0.0000660283
0.0001199996,0.0000000000,-0.0003832984,-0.0003832984
0.0001204996,0.0000000000,-0.0005863027,-0.0005863027
0.0001209996,0.0000000000,-0.0004695375,-0.0004695375
0.0001214996,0.0000000000,-0.0002999920,-0.0002999920
0.0001219996,0.0000000000,-0.0002768269,-0.0002768269
0.0001224996,0.0000000000,-0.0003397307,-0.0003397307
0.0001229996,0.0000000000,-0.0003817338,-0.0003817338
0.0001234996,0.0000000000,-0.0003629134,-0.0003629134
0.0001239996,0.0000000000,-0.0003219889,-0.0003219889
0.0001244996,0.0000000000,-0.0003465016,-0.0003465016
0.0001249996,0.0000000000,-0.0004032164,-0.0004032164
0.0001254996,0.0000000000,-0.0003352943,-0.0003352943
0.0001259996,0.0000000000,-0.0001960590,-0.0001960590
0.0001264996,0.0000000000,-0.0002574290,-0.0002574290
0.0001269996,0.0000000000,-0.0004759126,-0.0004759126
0.0001274996,0.0000000000,-0.0004529890,-0.0004529890
0.0001279996,0.0000000000,-0.0001736586,-0.0001736586
0.0001284996,0.0000000000,-0.0001232729,-0.0001232729
0.0001289996,0.0000000000,-0.0003962740,-0.0003962740
0.0001294996,0.0000000000,-0.0004857286,-0.0004857286
0.0001299997,0.0000000000,-0.0002419856,-0.0002419856
0.0001304997,0.0000000000,-0.0001394578,-0.0001394578
0.0001309997,0.0000000000,-0.0003289190,-0.0003289190
0.0001314997,0.0000000000,-0.0003929752,-0.0003929752
0.0001319997,0.0000000000,-0.0002371652,-0.0002371652
0.0001324997,0.0000000000,-0.0002228888,-0.0002228888
0.0001329997,0.0000000000,-0.0003446245,-0.0003446245
0.0001334997,0.0000000000,-0.0002828332,-0.0002828332
0.0001339997,0.0000000000,-0.0001681814,-0.0001681814
0.0001344997,0.0000000000,-0.0002974630,-0.0002974630
0.0001349997,0.0000000000,-0.0004097035,-0.0004097035
0.0001354997,0.0000000000,-0.0002109065,-0.0002109065
0.0001359997,0.0000000000,-0.0000733267,-0.0000733267
0.0001364997,0.0000000000,-0.0003008863,-0.0003008863
0.0001369997,0.0000000000,-0.0004547765,-0.0004547765
0.0001374997,0.0000000000,-0.0002294128,-0.0002294128
0.0001379997,0.0000000000,-0.0000704947,-0.0000704947
0.0001384997,0.0000000000,-0.0002463099,-0.0002463099
0.0001389997,0.0000000000,-0.0003549693,-0.0003549693
0.0001394997,0.0000000000,-0.0002274383,-0.0002274383
0.0001399997,0.0000000000,-0.0002037746,-0.0002037746
0.0001404997,0.0000000000,-0.0002964623,-0.0002964623
0.0001409997,0.0000000000,-0.0002073720,-0.0002073720
0.0001414997,0.0000000000,-0.0000999221,-0.0000999221
0.0001419997,0.0000000000,-0.0002672558,-0.0002672558
0.0001424997,0.0000000000,-0.0004047950,-0.0004047950
0.0001429998,0.0000000000,-0.0002054333,-0.0002054333
0.0001434998,0.0000000000,-0.0000406758,-0.0000406758
0.0001439998,0.0000000000,-0.0002079270,-0.0002079270
0.0001444998,0.0000000000,-0.0003444517,-0.0003444517
0.0001449998,0.0000000000,-0.0002236469,-0.0002236469
0.0001454998,0.0000000000,-0.0001590198,-0.0001590198
0.0001459998,0.0000000000,-0.0002415668,-0.0002415668
0.0001464998,0.0000000000,-0.0002014538,-0.0002014538
0.0001469998,0.0000000000,-0.0001115982,-0.0001115982
0.0001474998,0.0000000000,-0.0002280560,-0.0002280560
0.0001479998,0.0000000000,-0.0003411998,-0.0003411998
0.0001484998,0.0000000000,-0.0001918101,-0.0001918101
0.0001489998,0.0000000000,-0.0000588443,-0.0000588443
0.0001494998,0.0000000000,-0.0001837157,-0.0001837157
0.0001499998,0.0000000000,-0.0002868658,-0.0002868658
0.0001504998,0.0000000000,-0.0001973512,-0.0001973512
0.0001509998,0.0000000000,-0.0001603372,-0.0001603372
0.0001514998,0.0000000000,-0.0002251767,-0.0002251767
0.0001519998,0.0000000000,-0.0001748212,-0.0001748212
0.0001524998,0.0000000000,-0.0000948947,-0.0000948947
0.0001529998,0.0000000000,-0.0001984317,-0.0001984317
0.0001534998,0.0000000000,-0.0003017564,-0.0003017564
0.0001539998,0.0000000000,-0.0001890587,-0.0001890587
0.0001544998,0.0000000000,-0.0000755104,-0.0000755104
0.0001549998,0.0000000000,-0.0001499399,-0.0001499399
0.0001554998,0.0000000000,-0.0002222138,-0.0002222138
0.0001559998,0.0000000000,-0.0001843796,-0.0001843796
0.0001564999,0.0000000000,-0.0001855483,-0.0001855483
0.0001569999,0.0000000000,-0.0002108644,-0.0002108644
0.0001574999,0.0000000000,-0.0001278615,-0.0001278615
0.0001579999,0.0000000000,-0.0000704906,-0.0000704906
0.0001584999,0.0000000000,-0.0001889150,-0.0001889150
0.0001589999,0.0000000000,-0.0002850386,-0.0002850386
0.0001594999,0.0000000000,-0.0001846579,-0.0001846579
0.0001599999,0.0000000000,-0.0000727274,-0.0000727274
0.0001604999,0.0000000000,-0.0001090534,-0.0001090534
0.0001609999,0.0000000000,-0.0001761720,-0.0001761720
0.0001614999,0.0000000000,-0.0001932392,-0.0001932392
0.0001619999,0.0000000000,-0.0002097698,-0.0002097698
0.0001624999,0.0000000000,-0.0001799536,-0.0001799536
0.0001629999,0.0000000000,-0.0000740582,-0.0000740582
0.0001634999,0.0000000000,-0.0000574754,-0.0000574754
0.0001639999,0.0000000000,-0.0001979709,-0.0001979709
0.0001644999,0.0000000000,-0.0002774021,-0.0002774021
0.0001649999,0.0000000000,-0.0001690584,-0.0001690584
0.0001654999,0.0000000000,-0.0000516069,-0.0000516069
0.0001659999,0.0000000000,-0.0000729700,-0.0000729700
0.0001664999,0.0000000000,-0.0001581904,-0.0001581904
0.0001669999,0.0000000000,-0.0002148386,-0.0002148386
0.0001674999,0.0000000000,-0.0002158917,-0.0002158917
0.0001679999,0.0000000000,-0.0001324406,-0.0001324406
0.0001684999,0.0000000000,-0.0000289649,-0.0000289649
0.0001689999,0.0000000000,-0.0000631306,-0.0000631306
0.0001695000,0.0000000000,-0.0002166020,-0.0002166020
0.0001700000,0.0000000000,-0.0002667290,-0.0002667290
0.0001705000,0.0000000000,-0.0001398346,-0.0001398346
0.0001710000,0.0000000000,-0.0000213869,-0.0000213869
0.0001715000,0.0000000000,-0.0000522306,-0.0000522306
0.0001720000,0.0000000000,-0.0001652093,-0.0001652093
0.0001725000,0.0000000000,-0.0002346303,-0.0002346303
0.0001730000,0.0000000000,-0.0001981203,-0.0001981203
0.0001735000,0.0000000000,-0.0000786160,-0.0000786160
0.0001740000,0.0000000000,-0.0000026730,-0.0000026730
0.0001745000,0.0000000000,-0.0000846978,-0.0000846978
0.0001750000,0.0000000000,-0.0002348448,-0.0002348448
0.0001755000,0.0000000000,-0.0002464648,-0.0002464648
0.0001760000,0.0000000000,-0.0001000209,-0.0001000209
0.0001765000,0.0000000000,0.0000071528,0.0000071528
0.0001770000,0.0000000000,-0.0000517320,-0.0000517320
0.0001775000,0.0000000000,-0.0001868263,-0.0001868263
0.0001780000,0.0000000000,-0.0002407305,-0.0002407305
0.0001785000,0.0000000000,-0.0001605133,-0.0001605133
0.0001790000,0.0000000000,-0.0000306407,-0.0000306407
0.0001795000,0.0000000000,0.0000024551,0.0000024551
0.0001800000,0.0000000000,-0.0001146548,-0.0001146548
0.0001805000,0.0000000000,-0.0002455823,-0.0002455823
0.0001810000,0.0000000000,-0.0002149951,-0.0002149951
0.0001815000,0.0000000000,-0.0000554771,-0.0000554771
0.0001820000,0.0000000000,0.0000251107,0.0000251107
0.0001825001,0.0000000000,-0.0000701518,-0.0000701518
0.0001830001,0.0000000000,-0.0002103744,-0.0002103744
0.0001835001,0.0000000000,-0.0002277858,-0.0002277858
0.0001840001,0.0000000000,-0.0001128218,-0.0001128218
0.0001845001,0.0000000000,0.0000029568,0.0000029568
0.0001850001,0.0000000000,-0.0000098544,-0.0000098544
0.0001855001,0.0000000000,-0.0001452825,-0.0001452825
