time[s],Transmitted signal[dBSPL],Received signal1[dBSPL],Received signal2[dB],center[dB]
0.0000000000,-0.0099949827,0.0000000000,0.0000000000
0.0000005000,-0.0229087174,0.0000000000,0.0000000000
0.0000010000,-0.0334439017,0.0000000000,0.0000000000
0.0000015000,-0.0402728543,0.0000000000,0.0000000000
0.0000020000,-0.0424708240,0.0000000000,0.0000000000
0.0000025000,-0.0396377705,0.0000000000,0.0000000000
0.0000030000,-0.0319611393,0.0000000000,0.0000000000
0.0000035000,-0.0202111267,0.0000000000,0.0000000000
0.0000040000,-0.0056668525,0.0000000000,0.0000000000
0.0000045000,0.0100198211,0.0000000000,0.0000000000
0.0000050000,0.0250086784,0.0000000000,0.0000000000
0.0000055000,0.0374835096,0.0000000000,0.0000000000
0.0000060000,0.0458682701,0.0000000000,0.0000000000
0.0000065000,0.0490220077,0.0000000000,0.0000000000
0.0000070000,0.0463882275,0.0000000000,0.0000000000
0.0000075000,0.0380809978,0.0000000000,0.0000000000
0.0000080000,0.0248939134,0.0000000000,0.0000000000
0.0000085000,0.0082305241,0.0000000000,0.0000000000
0.0000090000,-0.0100413021,0.0000000000,0.0000000000
0.0000095000,-0.0277930535,0.0000000000,0.0000000000
0.0000100000,-0.0428779796,0.0000000000,0.0000000000
0.0000105000,-0.0533853285,0.0000000000,0.0000000000
0.0000110000,-0.0578745194,0.0000000000,0.0000000000
0.0000115000,-0.0555643030,0.0000000000,0.0000000000
0.0000120000,-0.0464511029,0.0000000000,0.0000000000
0.0000125000,-0.0313410349,0.0000000000,0.0000000000
0.0000130000,-0.0117876017,0.0000000000,0.0000000000
0.0000135000,0.0100595448,0.0000000000,0.0000000000
0.0000140000,0.0316832848,0.0000000000,0.0000000000
0.0000145000,0.0504794717,0.0000000000,0.0000000000
0.0000150000,0.0640599653,0.0000000000,0.0000000000
0.0000155000,0.0705438629,0.0000000000,0.0000000000
0.0000160000,0.0688024312,0.0000000000,0.0000000000
0.0000165000,0.0586279966,0.0000000000,0.0000000000
0.0000170000,0.0408035591,0.0000000000,0.0000000000
0.0000175000,0.0170606859,0.0000000000,0.0000000000
0.0000180000,-0.0100744218,0.0000000000,0.0000000000
0.0000185000,-0.0375349671,0.0000000000,0.0000000000
0.0000190000,-0.0620422848,0.0000000000,0.0000000000
0.0000195000,-0.0804766864,0.0000000000,0.0000000000
0.0000200000,-0.0902505070,-0.0000000000,-0.0000000000
0.0000205000,-0.0896395743,-0.0000000001,-0.0000000001
0.0000210000,-0.0780358091,-0.0000000016,-0.0000000016
0.0000215000,-0.0560866892,-0.0000000166,-0.0000000166
0.0000220000,-0.0257013645,-0.0000001276,-0.0000001276
0.0000225000,0.0100860642,-0.0000007591,-0.0000007591
0.0000230000,0.0473880433,-0.0000036370,-0.0000036370
0.0000235000,0.0818468779,-0.0000143892,-0.0000143892
0.0000240000,0.1090967655,-0.0000477811,-0.0000477811
0.0000245000,0.1252558231,-0.0001345740,-0.0001345740
0.0000250000,0.1274006516,-0.0003233579,-0.0003233579
0.0000255000,0.1139688045,-0.0006638217,-0.0006638217
0.0000260000,0.0850444809,-0.0011602467,-0.0011602467
0.0000265000,0.0424907058,-0.0017087257,-0.0017087257
0.0000270000,-0.0100943409,-0.0020730817,-0.0020730817
0.0000275000,-0.0676022694,-0.0019686290,-0.0019686290
0.0000280000,-0.1238057613,-0.0012543036,-0.0012543036
0.0000285000,-0.1718885750,-0.0000999584,-0.0000999584
0.0000290000,-0.2050649226,0.0010634658,0.0010634658
0.0000295000,-0.2172335386,0.0018450272,0.0018450272
0.0000300000,-0.2036044747,0.0021922167,0.0021922167
0.0000305000,-0.1612349898,0.0023550212,0.0023550212
0.0000310000,-0.0894210562,0.0025200462,0.0025200462
0.0000315000,0.0100993235,0.0025395774,0.0025395774
0.0000320000,0.1331564784,0.0021046328,0.0021046328
0.0000325000,0.2733794451,0.0011359298,0.0011359298
0.0000330000,0.4226319790,-0.0001399048,-0.0001399048
0.0000335000,0.5716199279,-0.0014942819,-0.0014942819
0.0000340000,0.7106176019,-0.0028593102,-0.0028593102
0.0000345000,0.8302505612,-0.0040771980,-0.0040771980
0.0000350000,0.9222652912,-0.0047168513,-0.0047168513
0.0000355000,0.9802147746,-0.0044162702,-0.0044162702
0.0000360000,1.0000000000,-0.0033178912,-0.0033178912
0.0000365000,0.9802147746,-0.0018873728,-0.0018873728
0.0000370000,0.9222652912,-0.0003591931,-0.0003591931
0.0000375000,0.8302505612,0.0013127046,0.0013127046
0.0000380000,0.7106176019,0.0029847615,0.0029847615
0.0000385000,0.5716199279,0.0042445147,0.0042445147
0.0000390000,0.4226319790,0.0049191914,0.0049191914
0.0000395000,0.2733794451,0.0052315178,0.0052315178
0.0000400000,0.1331564784,0.0052406979,0.0052406979
0.0000405000,0.0100993235,0.0045628841,0.0045628841
0.0000410000,-0.0894210562,0.0029626149,0.0029626149
0.0000415000,-0.1612349898,0.0008409955,0.0008409955
0.0000420000,-0.2036044747,-0.0012212426,-0.0012212426
0.0000425000,-0.2172335386,-0.0030577397,-0.0030577397
0.0000430000,-0.2050649226,-0.0046931608,-0.0046931608
0.0000435000,-0.1718885750,-0.0059073330,-0.0059073330
0.0000440000,-0.1238057613,-0.0064538461,-0.0064538461
0.0000445000,-0.0676022694,-0.0063715456,-0.0063715456
0.0000450000,-0.0100943409,-0.0056577353,-0.0056577353
0.0000455000,0.0424907058,-0.0040232083,-0.0040232083
0.0000460000,0.0850444809,-0.0014635534,-0.0014635534
0.0000465000,0.1139688045,0.0013145010,0.0013145010
0.0000470000,0.1274006516,0.0035965992,0.0035965992
0.0000475000,0.1252558231,0.0054544578,0.0054544578
0.0000480000,0.1090967655,0.0072600152,0.0072600152
0.0000485000,0.0818468779,0.0087110437,0.0087110437
0.0000490000,0.0473880433,0.0089868112,0.0089868112
0.0000495000,0.0100860642,0.0077467011,0.0077467011
0.0000500000,-0.0257013645,0.0054397425,0.0054397425
0.0000505000,-0.0560866892,0.0026660312,0.0026660312
0.0000510000,-0.0780358091,-0.0003572018,-0.0003572018
0.0000515000,-0.0896395743,-0.0036678654,-0.0036678654
0.0000520000,-0.0902505070,-0.0071444679,-0.0071444679
0.0000525000,-0.0804766864,-0.0102815796,-0.0102815796
0.0000530000,-0.0620422848,-0.0123627894,-0.0123627894
0.0000535000,-0.0375349671,-0.0129146706,-0.0129146706
0.0000540000,-0.0100744218,-0.0119516123,-0.0119516123
0.0000545000,0.0170606859,-0.0097102029,-0.0097102029
0.0000550000,0.0408035591,-0.0062839538,-0.0062839538
0.0000555000,0.0586279966,-0.0016481490,-0.0016481490
0.0000560000,0.0688024312,0.0040777312,0.0040777312
0.0000565000,0.0705438629,0.0104767084,0.0104767084
0.0000570000,0.0640599653,0.0168458596,0.0168458596
0.0000575000,0.0504794717,0.0224293880,0.0224293880
0.0000580000,0.0316832848,0.0268237479,0.0268237479
0.0000585000,0.0100595448,0.0300252065,0.0300252065
0.0000590000,-0.0117876017,0.0319157206,0.0319157206
0.0000595000,-0.0313410349,0.0320193209,0.0320193209
0.0000600000,-0.0464511029,0.0300561022,0.0300561022
0.0000605000,-0.0555643030,0.0263933241,0.0263933241
0.0000610000,-0.0578745194,0.0216504186,0.0216504186
0.0000615000,-0.0533853285,0.0162311159,0.0162311159
0.0000620000,-0.0428779796,0.0104876393,0.0104876393
0.0000625000,-0.0277930535,0.0049093273,0.0049093273
0.0000630000,-0.0100413021,-0.0000673942,-0.0000673942
0.0000635000,0.0082305241,-0.0040569222,-0.0040569222
0.0000640000,0.0248939134,-0.0065410249,-0.0065410249
0.0000645000,0.0380809978,-0.0071836598,-0.0071836598
0.0000650000,0.0463882275,-0.0062407423,-0.0062407423
0.0000655000,0.0490220077,-0.0041697575,-0.0041697575
0.0000660000,0.0458682701,-0.0010729097,-0.0010729097
0.0000665000,0.0374835096,0.0029694433,0.0029694433
0.0000670000,0.0250086784,0.0073777917,0.0073777917
0.0000675000,0.0100198211,0.0114053078,0.0114053078
0.0000680000,-0.0056668525,0.0146206897,0.0146206897
0.0000685000,-0.0202111267,0.0167134553,0.0167134553
0.0000690000,-0.0319611393,0.0173283275,0.0173283275
0.0000695000,-0.0396377705,0.0163777657,0.0163777657
0.0000700000,-0.0424708240,0.0140245389,0.0140245389
0.0000705000,-0.0402728543,0.0102846716,0.0102846716
0.0000710000,-0.0334439017,0.0052075684,0.0052075684
0.0000714999,-0.0229087174,-0.0006491295,-0.0006491295
0.0000719999,-0.0099949827,-0.0065267356,-0.0065267356
0.0000724999,0.0037304156,-0.0120502952,-0.0120502952
0.0000729999,0.0000000000,-0.0170026906,-0.0170026906
0.0000734999,0.0000000000,-0.0209061708,-0.0209061708
0.0000739999,0.0000000000,-0.0233287569,-0.0233287569
0.0000744999,0.0000000000,-0.0242032520,-0.0242032520
0.0000749999,0.0000000000,-0.0235392991,-0.0235392991
0.0000754999,0.0000000000,-0.0213308297,-0.0213308297
0.0000759999,0.0000000000,-0.0179043598,-0.0179043598
0.0000764999,0.0000000000,-0.0138036143,-0.0138036143
0.0000769999,0.0000000000,-0.0093233995,-0.0093233995
0.0000774999,0.0000000000,-0.0046728374,-0.0046728374
0.0000779999,0.0000000000,-0.0003818991,-0.0003818991
0.0000784999,0.0000000000,0.0030011039,0.0030011039
0.0000789999,0.0000000000,0.0053332779,0.0053332779
0.0000794999,0.0000000000,0.0066059944,0.0066059944
0.0000799999,0.0000000000,0.0066873520,0.0066873520
0.0000804999,0.0000000000,0.0056329779,0.0056329779
0.0000809999,0.0000000000,0.0037722006,0.0037722006
0.0000814999,0.0000000000,0.0013418654,0.0013418654
0.0000819999,0.0000000000,-0.0014874635,-0.0014874635
0.0000824999,0.0000000000,-0.0042894790,-0.0042894790
0.0000829999,0.0000000000,-0.0066002486,-0.0066002486
0.0000834999,0.0000000000,-0.0082909353,-0.0082909353
0.0000839999,0.0000000000,-0.0093279360,-0.0093279360
0.0000844999,0.0000000000,-0.0095067862,-0.0095067862
0.0000849999,0.0000000000,-0.0087611098,-0.0087611098
0.0000854999,0.0000000000,-0.0073305652,-0.0073305652
0.0000859998,0.0000000000,-0.0054233936,-0.0054233936
0.0000864998,0.0000000000,-0.0031471399,-0.0031471399
0.0000869998,0.0000000000,-0.0007974838,-0.0007974838
0.0000874998,0.0000000000,0.0012521381,0.0012521381
0.0000879998,0.0000000000,0.0028678081,0.0028678081
0.0000884998,0.0000000000,0.0039923545,0.0039923545
0.0000889998,0.0000000000,0.0044248346,0.0044248346
0.0000894998,0.0000000000,0.0040844148,0.0040844148
0.0000899998,0.0000000000,0.0031638232,0.0031638232
0.0000904998,0.0000000000,0.0018239770,0.0018239770
0.0000909998,0.0000000000,0.0001185226,0.0001185226
0.0000914998,0.0000000000,-0.0017273714,-0.0017273714
0.0000919998,0.0000000000,-0.0033820947,-0.0033820947
0.0000924998,0.0000000000,-0.0047069564,-0.0047069564
0.0000929998,0.0000000000,-0.0056505343,-0.0056505343
0.0000934998,0.0000000000,-0.0060448754,-0.0060448754
0.0000939998,0.0000000000,-0.0058041704,-0.0058041704
0.0000944998,0.0000000000,-0.0050615161,-0.0050615161
0.0000949998,0.0000000000,-0.0039307624,-0.0039307624
0.0000954998,0.0000000000,-0.0024545386,-0.0024545386
0.0000959998,0.0000000000,-0.0008375642,-0.0008375642
0.0000964998,0.0000000000,0.0006242602,0.0006242602
0.0000969998,0.0000000000,0.0018024858,0.0018024858
0.0000974998,0.0000000000,0.0026228458,0.0026228458
0.0000979998,0.0000000000,0.0028736778,0.0028736778
0.0000984998,0.0000000000,0.0024102218,0.0024102218
0.0000989998,0.0000000000,0.0013583032,0.0013583032
0.0000994998,0.0000000000,-0.0000129549,-0.0000129549
0.0000999998,0.0000000000,-0.0013653642,-0.0013653642
0.0001004997,0.0000000000,-0.0022753356,-0.0022753356
0.0001009997,0.0000000000,-0.0025313452,-0.0025313452
0.0001014997,0.0000000000,-0.0024252334,-0.0024252334
0.0001019997,0.0000000000,-0.0024218382,-0.0024218382
0.0001024997,0.0000000000,-0.0025993458,-0.0025993458
0.0001029997,0.0000000000,-0.0026297465,-0.0026297465
0.0001034997,0.0000000000,-0.0021934859,-0.0021934859
0.0001039997,0.0000000000,-0.0013035340,-0.0013035340
0.0001044997,0.0000000000,-0.0003423908,-0.0003423908
0.0001049997,0.0000000000,0.0002527905,0.0002527905
0.0001054997,0.0000000000,0.0004359822,0.0004359822
0.0001059997,0.0000000000,0.0004777235,0.0004777235
0.0001064997,0.0000000000,0.0004014999,0.0004014999
0.0001069997,0.0000000000,-0.0000436170,-0.0000436170
0.0001074997,0.0000000000,-0.0007178108,-0.0007178108
0.0001079997,0.0000000000,-0.0010089534,-0.0010089534
0.0001084997,0.0000000000,-0.0006908041,-0.0006908041
0.0001089997,0.0000000000,-0.0002870304,-0.0002870304
0.0001094997,0.0000000000,-0.0002689365,-0.0002689365
0.0001099997,0.0000000000,-0.0004293445,-0.0004293445
0.0001104997,0.0000000000,-0.0004056437,-0.0004056437
0.0001109997,0.0000000000,-0.0003329547,-0.0003329547
0.0001114997,0.0000000000,-0.0005085954,-0.0005085954
0.0001119997,0.0000000000,-0.0007422592,-0.0007422592
0.0001124997,0.0000000000,-0.0006052085,-0.0006052085
0.0001129997,0.0000000000,-0.0002069336,-0.0002069336
0.0001134997,0.0000000000,-0.0001201008,-0.0001201008
0.0001139997,0.0000000000,-0.0004665303,-0.0004665303
0.0001144996,0.0000000000,-0.0007085688,-0.0007085688
0.0001149996,0.0000000000,-0.0005464371,-0.0005464371
0.0001154996,0.0000000000,-0.0003401190,-0.0003401190
0.0001159996,0.0000000000,-0.0003539678,-0.0003539678
0.0001164996,0.0000000000,-0.0003466394,-0.0003466394
0.0001169996,0.0000000000,-0.0002555184,-0.0002555184
0.0001174996,0.0000000000,-0.0004211695,-0.0004211695
0.0001179996,0.0000000000,-0.0007461245,-0.0007461245
0.0001184996,0.0000000000,-0.0006075122,-0.0006075122
0.0001189996,0.0000000000,-0.0000351291,-0.0000351291
0.0001194996,0.0000000000,0.0000880820,0.0000880820
0.0001199996,0.0000000000,-0.0005142760,-0.0005142760
0.0001204996,0.0000000000,-0.0009411930,-0.0009411930
0.0001209996,0.0000000000,-0.0005496597,-0.0005496597
0.0001214996,0.0000000000,0.0000543596,0.0000543596
0.0001219996,0.0000000000,0.0000421322,0.0000421322
0.0001224996,0.0000000000,-0.0004585014,-0.0004585014
0.0001229996,0.0000000000,-0.0007525313,-0.0007525313
0.0001234996,0.0000000000,-0.0005517961,-0.0005517961
0.0001239996,0.0000000000,-0.0001538975,-0.0001538975
0.0001244996,0.0000000000,0.0000010633,0.0000010633
0.0001249996,0.0000000000,-0.0002390250,-0.0002390250
0.0001254996,0.0000000000,-0.0005821078,-0.0005821078
0.0001259996,0.0000000000,-0.0006060353,-0.0006060353
0.0001264996,0.0000000000,-0.0002966567,-0.0002966567
0.0001269996,0.0000000000,-0.0000532490,-0.0000532490
0.0001274996,0.0000000000,-0.0001329926,-0.0001329926
0.0001279996,0.0000000000,-0.0003900180,-0.0003900180
0.0001284996,0.0000000000,-0.0005494845,-0.0005494845
0.0001289996,0.0000000000,-0.0004578021,-0.0004578021
0.0001294996,0.0000000000,-0.0001700280,-0.0001700280
0.0001299997,0.0000000000,-0.0000000842,-0.0000000842
0.0001304997,0.0000000000,-0.0002193520,-0.0002193520
0.0001309997,0.0000000000,-0.0005688873,-0.0005688873
0.0001314997,0.0000000000,-0.0005262900,-0.0005262900
0.0001319997,0.0000000000,-0.0001462013,-0.0001462013
0.0001324997,0.0000000000,-0.0000055786,-0.0000055786
0.0001329997,0.0000000000,-0.0002504860,-0.0002504860
0.0001334997,0.0000000000,-0.0004421151,-0.0004421151
0.0001339997,0.0000000000,-0.0003758816,-0.0003758816
0.0001344997,0.0000000000,-0.0002705840,-0.0002705840
0.0001349997,0.0000000000,-0.0002045456,-0.0002045456
0.0001354997,0.0000000000,-0.0001222420,-0.0001222420
0.0001359997,0.0000000000,-0.0001874887,-0.0001874887
0.0001364997,0.0000000000,-0.0004291401,-0.0004291401
0.0001369997,0.0000000000,-0.0004532893,-0.0004532893
0.0001374997,0.0000000000,-0.0001407429,-0.0001407429
0.0001379997,0.0000000000,0.0000024259,0.0000024259
0.0001384997,0.0000000000,-0.0002554271,-0.0002554271
0.0001389997,0.0000000000,-0.0004399698,-0.0004399698
0.0001394997,0.0000000000,-0.0002881460,-0.0002881460
0.0001399997,0.0000000000,-0.0001552240,-0.0001552240
0.0001404997,0.0000000000,-0.0002075804,-0.0002075804
0.0001409997,0.0000000000,-0.0002042857,-0.0002042857
0.0001414997,0.0000000000,-0.0001715585,-0.0001715585
0.0001419997,0.0000000000,-0.0003061605,-0.0003061605
0.0001424997,0.0000000000,-0.0003775163,-0.0003775163
0.0001429998,0.0000000000,-0.0001610636,-0.0001610636
0.0001434998,0.0000000000,-0.0000222474,-0.0000222474
0.0001439998,0.0000000000,-0.0002311838,-0.0002311838
0.0001444998,0.0000000000,-0.0003896185,-0.0003896185
0.0001449998,0.0000000000,-0.0002321135,-0.0002321135
0.0001454998,0.0000000000,-0.0001136186,-0.0001136186
0.0001459998,0.0000000000,-0.0002092077,-0.0002092077
0.0001464998,0.0000000000,-0.0002261310,-0.0002261310
0.0001469998,0.0000000000,-0.0001473671,-0.0001473671
0.0001474998,0.0000000000,-0.0002306715,-0.0002306715
0.0001479998,0.0000000000,-0.0003239942,-0.0003239942
0.0001484998,0.0000000000,-0.0001709243,-0.0001709243
0.0001489998,0.0000000000,-0.0000453247,-0.0000453247
0.0001494998,0.0000000000,-0.0002046077,-0.0002046077
0.0001499998,0.0000000000,-0.0003267737,-0.0003267737
0.0001504998,0.0000000000,-0.0001925018,-0.0001925018
0.0001509998,0.0000000000,-0.0001127631,-0.0001127631
0.0001514998,0.0000000000,-0.0002103464,-0.0002103464
0.0001519998,0.0000000000,-0.0002070355,-0.0002070355
0.0001524998,0.0000000000,-0.0001173904,-0.0001173904
0.0001529998,0.0000000000,-0.0001955365,-0.0001955365
0.0001534998,0.0000000000,-0.0002922905,-0.0002922905
0.0001539998,0.0000000000,-0.0001660187,-0.0001660187
0.0001544998,0.0000000000,-0.0000559061,-0.0000559061
0.0001549998,0.0000000000,-0.0001802619,-0.0001802619
0.0001554998,0.0000000000,-0.0002702702,-0.0002702702
0.0001559998,0.0000000000,-0.0001683354,-0.0001683354
0.0001564999,0.0000000000,-0.0001282526,-0.0001282526
0.0001569999,0.0000000000,-0.0002028295,-0.0002028295
0.0001574999,0.0000000000,-0.0001665935,-0.0001665935
0.0001579999,0.0000000000,-0.0000929672,-0.0000929672
0.0001584999,0.0000000000,-0.0001882217,-0.0001882217
0.0001589999,0.0000000000,-0.0002715384,-0.0002715384
0.0001594999,0.0000000000,-0.0001487681,-0.0001487681
0.0001599999,0.0000000000,-0.0000557643,-0.0000557643
0.0001604999,0.0000000000,-0.0001591637,-0.0001591637
0.0001609999,0.0000000000,-0.0002270094,-0.0002270094
0.0001614999,0.0000000000,-0.0001583033,-0.0001583033
0.0001619999,0.0000000000,-0.0001447669,-0.0001447669
0.0001624999,0.0000000000,-0.0001820847,-0.0001820847
0.0001629999,0.0000000000,-0.0001203556,-0.0001203556
0.0001634999,0.0000000000,-0.0000821358,-0.0000821358
0.0001639999,0.0000000000,-0.0001965024,-0.0001965024
0.0001644999,0.0000000000,-0.0002517789,-0.0002517789
0.0001649999,0.0000000000,-0.0001231169,-0.0001231169
0.0001654999,0.0000000000,-0.0000497520,-0.0000497520
0.0001659999,0.0000000000,-0.0001424255,-0.0001424255
0.0001664999,0.0000000000,-0.0001984525,-0.0001984525
0.0001669999,0.0000000000,-0.0001582551,-0.0001582551
0.0001674999,0.0000000000,-0.0001530041,-0.0001530041
0.0001679999,0.0000000000,-0.0001492808,-0.0001492808
0.0001684999,0.0000000000,-0.0000799180,-0.0000799180
0.0001689999,0.0000000000,-0.0000868754,-0.0000868754
0.0001695000,0.0000000000,-0.0002097989,-0.0002097989
0.0001700000,0.0000000000,-0.0002273650,-0.0002273650
0.0001705000,0.0000000000,-0.0000932098,-0.0000932098
0.0001710000,0.0000000000,-0.0000422058,-0.0000422058
0.0001715000,0.0000000000,-0.0001314188,-0.0001314188
0.0001720000,0.0000000000,-0.0001833379,-0.0001833379
0.0001725000,0.0000000000,-0.0001621720,-0.0001621720
0.0001730000,0.0000000000,-0.0001483885,-0.0001483885
0.0001735000,0.0000000000,-0.0001097366,-0.0001097366
0.0001740000,0.0000000000,-0.0000526655,-0.0000526655
0.0001745000,0.0000000000,-0.0001042904,-0.0001042904
0.0001750000,0.0000000000,-0.0002201129,-0.0002201129
0.0001755000,0.0000000000,-0.0001966163,-0.0001966163
0.0001760000,0.0000000000,-0.0000627254,-0.0000627254
0.0001765000,0.0000000000,-0.0000364282,-0.0000364282
0.0001770000,0.0000000000,-0.0001272858,-0.0001272858
0.0001775000,0.0000000000,-0.0001784222,-0.0001784222
0.0001780000,0.0000000000,-0.0001638383,-0.0001638383
0.0001785000,0.0000000000,-0.0001305964,-0.0001305964
0.0001790000,0.0000000000,-0.0000704932,-0.0000704932
0.0001795000,0.0000000000,-0.0000416437,-0.0000416437
0.0001800000,0.0000000000,-0.0001288726,-0.0001288726
0.0001805000,0.0000000000,-0.0002224514,-0.0002224514
0.0001810000,0.0000000000,-0.0001603715,-0.0001603715
0.0001815000,0.0000000000,-0.0000346287,-0.0000346287
0.0001820000,0.0000000000,-0.0000349143,-0.0000349143
