time[s],Transmitted signal[dBSPL],Received signal1[dBSPL],Received signal2[dB],center[dB]
0.0000000000,-0.0099949827,0.0000000000,0.0000000000
0.0000005000,-0.0229087174,0.0000000000,0.0000000000
0.0000010000,-0.0334439017,0.0000000000,0.0000000000
0.0000015000,-0.0402728543,0.0000000000,0.0000000000
0.0000020000,-0.0424708240,0.0000000000,0.0000000000
0.0000025000,-0.0396377705,0.0000000000,0.0000000000
0.0000030000,-0.0319611393,0.0000000000,0.0000000000
0.0000035000,-0.0202111267,0.0000000000,0.0000000000
0.0000040000,-0.0056668525,0.0000000000,0.0000000000
0.0000045000,0.0100198211,0.0000000000,0.0000000000
0.0000050000,0.0250086784,0.0000000000,0.0000000000
0.0000055000,0.0374835096,0.0000000000,0.0000000000
0.0000060000,0.0458682701,0.0000000000,0.0000000000
0.0000065000,0.0490220077,0.0000000000,0.0000000000
0.0000070000,0.0463882275,0.0000000000,0.0000000000
0.0000075000,0.0380809978,0.0000000000,0.0000000000
0.0000080000,0.0248939134,0.0000000000,0.0000000000
0.0000085000,0.0082305241,0.0000000000,0.0000000000
0.0000090000,-0.0100413021,0.0000000000,0.0000000000
0.0000095000,-0.0277930535,0.0000000000,0.0000000000
0.0000100000,-0.0428779796,0.0000000000,0.0000000000
0.0000105000,-0.0533853285,0.0000000000,0.0000000000
0.0000110000,-0.0578745194,0.0000000000,0.0000000000
0.0000115000,-0.0555643030,0.0000000000,0.0000000000
0.0000120000,-0.0464511029,0.0000000000,0.0000000000
0.0000125000,-0.0313410349,0.0000000000,0.0000000000
0.0000130000,-0.0117876017,0.0000000000,0.0000000000
0.0000135000,0.0100595448,0.0000000000,0.0000000000
0.0000140000,0.0316832848,0.0000000000,0.0000000000
0.0000145000,0.0504794717,0.0000000000,0.0000000000
0.0000150000,0.0640599653,0.0000000000,0.0000000000
0.0000155000,0.0705438629,0.0000000000,0.0000000000
0.0000160000,0.0688024312,0.0000000000,0.0000000000
0.0000165000,0.0586279966,0.0000000000,0.0000000000
0.0000170000,0.0408035591,0.0000000000,0.0000000000
0.0000175000,0.0170606859,0.0000000000,0.0000000000
0.0000180000,-0.0100744218,0.0000000000,0.0000000000
0.0000185000,-0.0375349671,0.0000000000,0.0000000000
0.0000190000,-0.0620422848,0.0000000000,0.0000000000
0.0000195000,-0.0804766864,0.0000000000,0.0000000000
0.0000200000,-0.0902505070,0.0000000000,0.0000000000
0.0000205000,-0.0896395743,-0.0000000000,-0.0000000000
0.0000210000,-0.0780358091,-0.0000000001,-0.0000000001
0.0000215000,-0.0560866892,-0.0000000009,-0.0000000009
0.0000220000,-0.0257013645,-0.0000000097,-0.0000000097
0.0000225000,0.0100860642,-0.0000000767,-0.0000000767
0.0000230000,0.0473880433,-0.0000004682,-0.0000004682
0.0000235000,0.0818468779,-0.0000023073,-0.0000023073
0.0000240000,0.1090967655,-0.0000094038,-0.0000094038
0.0000245000,0.1252558231,-0.0000322371,-0.0000322371
0.0000250000,0.1274006516,-0.0000939885,-0.0000939885
0.0000255000,0.1139688045,-0.0002346172,-0.0002346172
0.0000260000,0.0850444809,-0.0005027933,-0.0005027933
0.0000265000,0.0424907058,-0.0009236856,-0.0009236856
0.0000270000,-0.0100943409,-0.0014447283,-0.0014447283
0.0000275000,-0.0676022694,-0.0018943019,-0.0018943019
0.0000280000,-0.1238057613,-0.0020140146,-0.0020140146
0.0000285000,-0.1718885750,-0.0015957542,-0.0015957542
0.0000290000,-0.2050649226,-0.0006554372,-0.0006554372
0.0000295000,-0.2172335386,0.0005131604,0.0005131604
0.0000300000,-0.2036044747,0.0015063171,0.0015063171
0.0000305000,-0.1612349898,0.0020897258,0.0020897258
0.0000310000,-0.0894210562,0.0023195888,0.0023195888
0.0000315000,0.0100993235,0.0023686062,0.0023686062
0.0000320000,0.1331564784,0.0022576146,0.0022576146
0.0000325000,0.2733794451,0.0018198481,0.0018198481
0.0000330000,0.4226319790,0.0009279819,0.0009279819
0.0000335000,0.5716199279,-0.0003256864,-0.0003256864
0.0000340000,0.7106176019,-0.0016939384,-0.0016939384
0.0000345000,0.8302505612,-0.0028994537,-0.0028994537
0.0000350000,0.9222652912,-0.0036259545,-0.0036259545
0.0000355000,0.9802147746,-0.0035633415,-0.0035633415
0.0000360000,1.0000000000,-0.0027030539,-0.0027030539
0.0000365000,0.9802147746,-0.0015243501,-0.0015243501
0.0000370000,0.9222652912,-0.0005864507,-0.0005864507
0.0000375000,0.8302505612,0.0001103774,0.0001103774
0.0000380000,0.7106176019,0.0010510001,0.0010510001
0.0000385000,0.5716199279,0.0023887320,0.0023887320
0.0000390000,0.4226319790,0.0035693292,0.0035693292
0.0000395000,0.2733794451,0.0040180800,0.0040180800
0.0000400000,0.1331564784,0.0038440330,0.0038440330
0.0000405000,0.0100993235,0.0034684408,0.0034684408
0.0000410000,-0.0894210562,0.0028588171,0.0028588171
0.0000415000,-0.1612349898,0.0016793396,0.0016793396
0.0000420000,-0.2036044747,0.0000461725,0.0000461725
0.0000425000,-0.2172335386,-0.0014740159,-0.0014740159
0.0000430000,-0.2050649226,-0.0026204763,-0.0026204763
0.0000435000,-0.1718885750,-0.0036219852,-0.0036219852
0.0000440000,-0.1238057613,-0.0045372541,-0.0045372541
0.0000445000,-0.0676022694,-0.0049574161,-0.0049574161
0.0000450000,-0.0100943409,-0.0045587802,-0.0045587802
0.0000455000,0.0424907058,-0.0035142505,-0.0035142505
0.0000460000,0.0850444809,-0.0021507905,-0.0021507905
0.0000465000,0.1139688045,-0.0005586260,-0.0005586260
0.0000470000,0.1274006516,0.0012567084,0.0012567084
0.0000475000,0.1252558231,0.0031101471,0.0031101471
0.0000480000,0.1090967655,0.0047077304,0.0047077304
0.0000485000,0.0818468779,0.0058248402,0.0058248402
0.0000490000,0.0473880433,0.0063368934,0.0063368934
0.0000495000,0.0100860642,0.0061847265,0.0061847265
0.0000500000,-0.0257013645,0.0053310199,0.0053310199
0.0000505000,-0.0560866892,0.0037406948,0.0037406948
0.0000510000,-0.0780358091,0.0015126986,0.0015126986
0.0000515000,-0.0896395743,-0.0010043408,-0.0010043408
0.0000520000,-0.0902505070,-0.0034504449,-0.0034504449
0.0000525000,-0.0804766864,-0.0057440638,-0.0057440638
0.0000530000,-0.0620422848,-0.0078328094,-0.0078328094
0.0000535000,-0.0375349671,-0.0092910621,-0.0092910621
0.0000540000,-0.0100744218,-0.0096050622,-0.0096050622
0.0000545000,0.0170606859,-0.0087457253,-0.0087457253
0.0000550000,0.0408035591,-0.0069977278,-0.0069977278
0.0000555000,0.0586279966,-0.0043916991,-0.0043916991
0.0000560000,0.0688024312,-0.0008186765,-0.0008186765
0.0000565000,0.0705438629,0.0034890173,0.0034890173
0.0000570000,0.0640599653,0.0080969241,0.0080969241
0.0000575000,0.0504794717,0.0127480589,0.0127480589
0.0000580000,0.0316832848,0.0171713624,0.0171713624
0.0000585000,0.0100595448,0.0208792221,0.0208792221
0.0000590000,-0.0117876017,0.0235831290,0.0235831290
0.0000595000,-0.0313410349,0.0253946930,0.0253946930
0.0000600000,-0.0464511029,0.0262931734,0.0262931734
0.0000605000,-0.0555643030,0.0259464420,0.0259464420
0.0000610000,-0.0578745194,0.0243454669,0.0243454669
0.0000615000,-0.0533853285,0.0219988488,0.0219988488
0.0000620000,-0.0428779796,0.0192794204,0.0192794204
0.0000625000,-0.0277930535,0.0162164476,0.0162164476
0.0000630000,-0.0100413021,0.0130299386,0.0130299386
0.0000635000,0.0082305241,0.0101837534,0.0101837534
0.0000640000,0.0248939134,0.0078797396,0.0078797396
0.0000645000,0.0380809978,0.0061104069,0.0061104069
0.0000650000,0.0463882275,0.0050629317,0.0050629317
0.0000655000,0.0490220077,0.0048726061,0.0048726061
0.0000660000,0.0458682701,0.0052429396,0.0052429396
0.0000665000,0.0374835096,0.0058335201,0.0058335201
0.0000670000,0.0250086784,0.0066358848,0.0066358848
0.0000675000,0.0100198211,0.0075491904,0.0075491904
0.0000680000,-0.0056668525,0.0081103249,0.0081103249
0.0000685000,-0.0202111267,0.0079994947,0.0079994947
0.0000690000,-0.0319611393,0.0072663659,0.0072663659
0.0000695000,-0.0396377705,0.0058717453,0.0058717453
0.0000700000,-0.0424708240,0.0036218043,0.0036218043
0.0000705000,-0.0402728543,0.0006302381,0.0006302381
0.0000710000,-0.0334439017,-0.0027440698,-0.0027440698
0.0000714999,-0.0229087174,-0.0063422956,-0.0063422956
0.0000719999,-0.0099949827,-0.0100589357,-0.0100589357
0.0000724999,0.0037304156,-0.0134979691,-0.0134979691
0.0000729999,0.0000000000,-0.0162646156,-0.0162646156
0.0000734999,0.0000000000,-0.0182746872,-0.0182746872
0.0000739999,0.0000000000,-0.0194376614,-0.0194376614
0.0000744999,0.0000000000,-0.0194984041,-0.0194984041
0.0000749999,0.0000000000,-0.0184446014,-0.0184446014
0.0000754999,0.0000000000,-0.0165736694,-0.0165736694
0.0000759999,0.0000000000,-0.0140505470,-0.0140505470
0.0000764999,0.0000000000,-0.0109104682,-0.0109104682
0.0000769999,0.0000000000,-0.0074558072,-0.0074558072
0.0000774999,0.0000000000,-0.0041407547,-0.0041407547
0.0000779999,0.0000000000,-0.0011934876,-0.0011934876
0.0000784999,0.0000000000,0.0012569849,0.0012569849
0.0000789999,0.0000000000,0.0029680021,0.0029680021
0.0000794999,0.0000000000,0.0038222657,0.0038222657
0.0000799999,0.0000000000,0.0039341003,0.0039341003
0.0000804999,0.0000000000,0.0033409963,0.0033409963
0.0000809999,0.0000000000,0.0020038029,0.0020038029
0.0000814999,0.0000000000,0.0001615227,0.0001615227
0.0000819999,0.0000000000,-0.0017636204,-0.0017636204
0.0000824999,0.0000000000,-0.0035743173,-0.0035743173
0.0000829999,0.0000000000,-0.0052264440,-0.0052264440
0.0000834999,0.0000000000,-0.0065294220,-0.0065294220
0.0000839999,0.0000000000,-0.0072693927,-0.0072693927
0.0000844999,0.0000000000,-0.0074086678,-0.0074086678
0.0000849999,0.0000000000,-0.0069485530,-0.0069485530
0.0000854999,0.0000000000,-0.0058940956,-0.0058940956
0.0000859998,0.0000000000,-0.0044508679,-0.0044508679
0.0000864998,0.0000000000,-0.0029128774,-0.0029128774
0.0000869998,0.0000000000,-0.0013606134,-0.0013606134
0.0000874998,0.0000000000,0.0002046212,0.0002046212
0.0000879998,0.0000000000,0.0015597478,0.0015597478
0.0000884998,0.0000000000,0.0024194210,0.0024194210
0.0000889998,0.0000000000,0.0027266631,0.0027266631
0.0000894998,0.0000000000,0.0025580374,0.0025580374
0.0000899998,0.0000000000,0.0019683470,0.0019683470
0.0000904998,0.0000000000,0.0010622380,0.0010622380
0.0000909998,0.0000000000,-0.0000295819,-0.0000295819
0.0000914998,0.0000000000,-0.0012711821,-0.0012711821
0.0000919998,0.0000000000,-0.0025817123,-0.0025817123
0.0000924998,0.0000000000,-0.0036800604,-0.0036800604
0.0000929998,0.0000000000,-0.0043218751,-0.0043218751
0.0000934998,0.0000000000,-0.0045402818,-0.0045402818
0.0000939998,0.0000000000,-0.0044581043,-0.0044581043
0.0000944998,0.0000000000,-0.0040665842,-0.0040665842
0.0000949998,0.0000000000,-0.0033313865,-0.0033313865
0.0000954998,0.0000000000,-0.0023134965,-0.0023134965
0.0000959998,0.0000000000,-0.0011267314,-0.0011267314
0.0000964998,0.0000000000,0.0000508025,0.0000508025
0.0000969998,0.0000000000,0.0009802496,0.0009802496
0.0000974998,0.0000000000,0.0015453377,0.0015453377
0.0000979998,0.0000000000,0.0018097860,0.0018097860
0.0000984998,0.0000000000,0.0017711070,0.0017711070
0.0000989998,0.0000000000,0.0012564901,0.0012564901
0.0000994998,0.0000000000,0.0001901813,0.0001901813
0.0000999998,0.0000000000,-0.0011969142,-0.0011969142
0.0001004997,0.0000000000,-0.0024759334,-0.0024759334
0.0001009997,0.0000000000,-0.0032293033,-0.0032293033
0.0001014997,0.0000000000,-0.0032527435,-0.0032527435
0.0001019997,0.0000000000,-0.0027306494,-0.0027306494
0.0001024997,0.0000000000,-0.0021171581,-0.0021171581
0.0001029997,0.0000000000,-0.0016970423,-0.0016970423
0.0001034997,0.0000000000,-0.0013550848,-0.0013550848
0.0001039997,0.0000000000,-0.0008485139,-0.0008485139
0.0001044997,0.0000000000,-0.0001731231,-0.0001731231
0.0001049997,0.0000000000,0.0004124001,0.0004124001
0.0001054997,0.0000000000,0.0006424779,0.0006424779
0.0001059997,0.0000000000,0.0004791234,0.0004791234
0.0001064997,0.0000000000,0.0000924269,0.0000924269
0.0001069997,0.0000000000,-0.0003701045,-0.0003701045
0.0001074997,0.0000000000,-0.0008453802,-0.0008453802
0.0001079997,0.0000000000,-0.0011205997,-0.0011205997
0.0001084997,0.0000000000,-0.0008611553,-0.0008611553
0.0001089997,0.0000000000,-0.0001660664,-0.0001660664
0.0001094997,0.0000000000,0.0002381238,0.0002381238
0.0001099997,0.0000000000,-0.0001597126,-0.0001597126
0.0001104997,0.0000000000,-0.0008586480,-0.0008586480
0.0001109997,0.0000000000,-0.0009629245,-0.0009629245
0.0001114997,0.0000000000,-0.0004405646,-0.0004405646
0.0001119997,0.0000000000,-0.0001014411,-0.0001014411
0.0001124997,0.0000000000,-0.0003358101,-0.0003358101
0.0001129997,0.0000000000,-0.0006213702,-0.0006213702
0.0001134997,0.0000000000,-0.0004981899,-0.0004981899
0.0001139997,0.0000000000,-0.0002960708,-0.0002960708
0.0001144996,0.0000000000,-0.0004355949,-0.0004355949
0.0001149996,0.0000000000,-0.0006369007,-0.0006369007
0.0001154996,0.0000000000,-0.0004632689,-0.0004632689
0.0001159996,0.0000000000,-0.0001697859,-0.0001697859
0.0001164996,0.0000000000,-0.0002714869,-0.0002714869
0.0001169996,0.0000000000,-0.0006090082,-0.0006090082
0.0001174996,0.0000000000,-0.0006182191,-0.0006182191
0.0001179996,0.0000000000,-0.0003027875,-0.0003027875
0.0001184996,0.0000000000,-0.0001793632,-0.0001793632
0.0001189996,0.0000000000,-0.0003870500,-0.0003870500
0.0001194996,0.0000000000,-0.0005449227,-0.0005449227
0.0001199996,0.0000000000,-0.0004386784,-0.0004386784
0.0001204996,0.0000000000,-0.0002774801,-0.0002774801
0.0001209996,0.0000000000,-0.0002803961,-0.0002803961
0.0001214996,0.0000000000,-0.0004050696,-0.0004050696
0.0001219996,0.0000000000,-0.0004735678,-0.0004735678
0.0001224996,0.0000000000,-0.0003766610,-0.0003766610
0.0001229996,0.0000000000,-0.0002204951,-0.0002204951
0.0001234996,0.0000000000,-0.0002505783,-0.0002505783
0.0001239996,0.0000000000,-0.0004650804,-0.0004650804
0.0001244996,0.0000000000,-0.0005132164,-0.0005132164
0.0001249996,0.0000000000,-0.0002638343,-0.0002638343
0.0001254996,0.0000000000,-0.0001125863,-0.0001125863
0.0001259996,0.0000000000,-0.0003203606,-0.0003203606
0.0001264996,0.0000000000,-0.0005216679,-0.0005216679
0.0001269996,0.0000000000,-0.0003823508,-0.0003823508
0.0001274996,0.0000000000,-0.0001885645,-0.0001885645
0.0001279996,0.0000000000,-0.0002513500,-0.0002513500
0.0001284996,0.0000000000,-0.0003521336,-0.0003521336
0.0001289996,0.0000000000,-0.0002923497,-0.0002923497
0.0001294996,0.0000000000,-0.0002932691,-0.0002932691
0.0001299997,0.0000000000,-0.0004078629,-0.0004078629
0.0001304997,0.0000000000,-0.0003276503,-0.0003276503
0.0001309997,0.0000000000,-0.0001074927,-0.0001074927
0.0001314997,0.0000000000,-0.0001842138,-0.0001842138
0.0001319997,0.0000000000,-0.0004711143,-0.0004711143
0.0001324997,0.0000000000,-0.0004356506,-0.0004356506
0.0001329997,0.0000000000,-0.0001397160,-0.0001397160
0.0001334997,0.0000000000,-0.0001236975,-0.0001236975
0.0001339997,0.0000000000,-0.0003462105,-0.0003462105
0.0001344997,0.0000000000,-0.0003481206,-0.0003481206
0.0001349997,0.0000000000,-0.0002116815,-0.0002116815
0.0001354997,0.0000000000,-0.0002754854,-0.0002754854
0.0001359997,0.0000000000,-0.0003436562,-0.0003436562
0.0001364997,0.0000000000,-0.0001748200,-0.0001748200
0.0001369997,0.0000000000,-0.0001083592,-0.0001083592
0.0001374997,0.0000000000,-0.0003420814,-0.0003420814
0.0001379997,0.0000000000,-0.0004302149,-0.0004302149
0.0001384997,0.0000000000,-0.0001861292,-0.0001861292
0.0001389997,0.0000000000,-0.0000799249,-0.0000799249
0.0001394997,0.0000000000,-0.0002660793,-0.0002660793
0.0001399997,0.0000000000,-0.0003260484,-0.0003260484
0.0001404997,0.0000000000,-0.0002007044,-0.0002007044
0.0001409997,0.0000000000,-0.0002301182,-0.0002301182
0.0001414997,0.0000000000,-0.0003187972,-0.0003187972
0.0001419997,0.0000000000,-0.0001788405,-0.0001788405
0.0001424997,0.0000000000,-0.0000682218,-0.0000682218
0.0001429998,0.0000000000,-0.0002661597,-0.0002661597
0.0001434998,0.0000000000,-0.0004097327,-0.0004097327
0.0001439998,0.0000000000,-0.0002163003,-0.0002163003
0.0001444998,0.0000000000,-0.0000612124,-0.0000612124
0.0001449998,0.0000000000,-0.0001870822,-0.0001870822
0.0001454998,0.0000000000,-0.0002795070,-0.0002795070
0.0001459998,0.0000000000,-0.0002149958,-0.0002149958
0.0001464998,0.0000000000,-0.0002327652,-0.0002327652
0.0001469998,0.0000000000,-0.0002743663,-0.0002743663
0.0001474998,0.0000000000,-0.0001332422,-0.0001332422
0.0001479998,0.0000000000,-0.0000480733,-0.0000480733
0.0001484998,0.0000000000,-0.0002485940,-0.0002485940
0.0001489998,0.0000000000,-0.0003919073,-0.0003919073
0.0001494998,0.0000000000,-0.0002099719,-0.0002099719
0.0001499998,0.0000000000,-0.0000376203,-0.0000376203
0.0001504998,0.0000000000,-0.0001298973,-0.0001298973
0.0001509998,0.0000000000,-0.0002459347,-0.0002459347
0.0001514998,0.0000000000,-0.0002383811,-0.0002383811
0.0001519998,0.0000000000,-0.0002409690,-0.0002409690
0.0001524998,0.0000000000,-0.0002142534,-0.0002142534
0.0001529998,0.0000000000,-0.0000731694,-0.0000731694
0.0001534998,0.0000000000,-0.0000508726,-0.0000508726
0.0001539998,0.0000000000,-0.0002651872,-0.0002651872
0.0001544998,0.0000000000,-0.0003699181,-0.0003699181
0.0001549998,0.0000000000,-0.0001745191,-0.0001745191
0.0001554998,0.0000000000,-0.0000088036,-0.0000088036
0.0001559998,0.0000000000,-0.0000976321,-0.0000976321
0.0001564999,0.0000000000,-0.0002349011,-0.0002349011
0.0001569999,0.0000000000,-0.0002613742,-0.0002613742
0.0001574999,0.0000000000,-0.0002330022,-0.0002330022
0.0001579999,0.0000000000,-0.0001437518,-0.0001437518
0.0001584999,0.0000000000,-0.0000242133,-0.0000242133
0.0001589999,0.0000000000,-0.0000771271,-0.0000771271
0.0001594999,0.0000000000,-0.0002919867,-0.0002919867
0.0001599999,0.0000000000,-0.0003356301,-0.0003356301
0.0001604999,0.0000000000,-0.0001226688,-0.0001226688
0.0001609999,0.0000000000,0.0000172445,0.0000172445
0.0001614999,0.0000000000,-0.0000886642,-0.0000886642
0.0001619999,0.0000000000,-0.0002425204,-0.0002425204
0.0001624999,0.0000000000,-0.0002752579,-0.0002752579
0.0001629999,0.0000000000,-0.0002024545,-0.0002024545
0.0001634999,0.0000000000,-0.0000728493,-0.0000728493
0.0001639999,0.0000000000,0.0000001707,0.0000001707
0.0001644999,0.0000000000,-0.0001201053,-0.0001201053
0.0001649999,0.0000000000,-0.0003117978,-0.0003117978
0.0001654999,0.0000000000,-0.0002871732,-0.0002871732
0.0001659999,0.0000000000,-0.0000662468,-0.0000662468
0.0001664999,0.0000000000,0.0000336548,0.0000336548
0.0001669999,0.0000000000,-0.0000995443,-0.0000995443
0.0001674999,0.0000000000,-0.0002601389,-0.0002601389
0.0001679999,0.0000000000,-0.0002729311,-0.0002729311
0.0001684999,0.0000000000,-0.0001524952,-0.0001524952
0.0001689999,0.0000000000,-0.0000130378,-0.0000130378
0.0001695000,0.0000000000,-0.0000031454,-0.0000031454
0.0001700000,0.0000000000,-0.0001688545,-0.0001688545
0.0001705000,0.0000000000,-0.0003153364,-0.0003153364
0.0001710000,0.0000000000,-0.0002280156,-0.0002280156
0.0001715000,0.0000000000,-0.0000140759,-0.0000140759
0.0001720000,0.0000000000,0.0000365879,0.0000365879
0.0001725000,0.0000000000,-0.0001257222,-0.0001257222
0.0001730000,0.0000000000,-0.0002780694,-0.0002780694
0.0001735000,0.0000000000,-0.0002506063,-0.0002506063
0.0001740000,0.0000000000,-0.0000918790,-0.0000918790
0.0001745000,0.0000000000,0.0000265786,0.0000265786
0.0001750000,0.0000000000,-0.0000295842,-0.0000295842
0.0001755000,0.0000000000,-0.0002125266,-0.0002125266
0.0001760000,0.0000000000,-0.0003002273,-0.0003002273
0.0001765000,0.0000000000,-0.0001638449,-0.0001638449
0.0001770000,0.0000000000,0.0000281447,0.0000281447
0.0001775000,0.0000000000,0.0000245852,0.0000245852
0.0001780000,0.0000000000,-0.0001614818,-0.0001614818
0.0001785000,0.0000000000,-0.0002873026,-0.0002873026
0.0001790000,0.0000000000,-0.0002089233,-0.0002089233
0.0001795000,0.0000000000,-0.0000317424,-0.0000317424
0.0001800000,0.0000000000,0.0000417225,0.0000417225
0.0001805000,0.0000000000,-0.0000701483,-0.0000701483
0.0001810000,0.0000000000,-0.0002434390,-0.0002434390
0.0001815000,0.0000000000,-0.0002687357,-0.0002687357
0.0001820000,0.0000000000,-0.0001001260,-0.0001001260
0.0001825001,0.0000000000,0.0000569489,0.0000569489
0.0001830001,0.0000000000,-0.0000020476,-0.0000020476
0.0001835001,0.0000000000,-0.0001998729,-0.0001998729
0.0001840001,0.0000000000,-0.0002810535,-0.0002810535
0.0001845001,0.0000000000,-0.0001529961,-0.0001529961
0.0001850001,0.0000000000,0.0000175610,0.0000175610
0.0001855001,0.0000000000,0.0000336111,0.0000336111
